9.974011e+001,3.799988e+002
1.007043e+002,3.795691e+002
1.016686e+002,3.814500e+002
1.026328e+002,3.863604e+002
1.035970e+002,3.884357e+002
1.045613e+002,3.871571e+002
1.055255e+002,3.837560e+002
1.064897e+002,3.805235e+002
1.074540e+002,3.779215e+002
1.084182e+002,3.748910e+002
1.093824e+002,3.703729e+002
1.103467e+002,3.646308e+002
1.113109e+002,3.596586e+002
1.122751e+002,3.590963e+002
1.132394e+002,3.599479e+002
1.142036e+002,3.607259e+002
1.151678e+002,3.604799e+002
1.161321e+002,3.593755e+002
1.170963e+002,3.586968e+002
1.180605e+002,3.580073e+002
1.190248e+002,3.568330e+002
1.199890e+002,3.547934e+002
1.209532e+002,3.521593e+002
1.219175e+002,3.498724e+002
1.228817e+002,3.476499e+002
1.238459e+002,3.457092e+002
1.248102e+002,3.445411e+002
1.257744e+002,3.454651e+002
1.267386e+002,3.455786e+002
1.277029e+002,3.441157e+002
1.286671e+002,3.411637e+002
1.296313e+002,3.377421e+002
1.305956e+002,3.339694e+002
1.315598e+002,3.307266e+002
1.325240e+002,3.287053e+002
1.334883e+002,3.281955e+002
1.344525e+002,3.286392e+002
1.354167e+002,3.282551e+002
1.363810e+002,3.273955e+002
1.373452e+002,3.268503e+002
1.383094e+002,3.273582e+002
1.392737e+002,3.293367e+002
1.402379e+002,3.291639e+002
1.412021e+002,3.262432e+002
1.421664e+002,3.217832e+002
1.431306e+002,3.175526e+002
1.440948e+002,3.132638e+002
1.450591e+002,3.102997e+002
1.460233e+002,3.091274e+002
1.469875e+002,3.091855e+002
1.479518e+002,3.091594e+002
1.489160e+002,3.072899e+002
1.498802e+002,3.055220e+002
1.508445e+002,3.051941e+002
1.518087e+002,3.065910e+002
1.527729e+002,3.088541e+002
1.537372e+002,3.093994e+002
1.547014e+002,3.085233e+002
1.556656e+002,3.065759e+002
1.566299e+002,3.038630e+002
1.575941e+002,3.005367e+002
1.585583e+002,2.983110e+002
1.595226e+002,2.975145e+002
1.604868e+002,2.971950e+002
1.614510e+002,2.963912e+002
1.624153e+002,2.945199e+002
1.633795e+002,2.920214e+002
1.643438e+002,2.886971e+002
1.653080e+002,2.853387e+002
1.662722e+002,2.829853e+002
1.672365e+002,2.829021e+002
1.682007e+002,2.830973e+002
1.691649e+002,2.828060e+002
1.701292e+002,2.821133e+002
1.710934e+002,2.814592e+002
1.720576e+002,2.817276e+002
1.730219e+002,2.822686e+002
1.739861e+002,2.821935e+002
1.749503e+002,2.810472e+002
1.759146e+002,2.786475e+002
1.768788e+002,2.762347e+002
1.778430e+002,2.746795e+002
1.788073e+002,2.734132e+002
1.797715e+002,2.720836e+002
1.807357e+002,2.704534e+002
1.817000e+002,2.697042e+002
1.826642e+002,2.696893e+002
1.836284e+002,2.696427e+002
1.845927e+002,2.689041e+002
1.855569e+002,2.668625e+002
1.865211e+002,2.646346e+002
1.874854e+002,2.636661e+002
1.884496e+002,2.635561e+002
1.894138e+002,2.636593e+002
1.903781e+002,2.629613e+002
1.913423e+002,2.618248e+002
1.923065e+002,2.608796e+002
1.932708e+002,2.599722e+002
1.942350e+002,2.590842e+002
1.951992e+002,2.587760e+002
1.961635e+002,2.602426e+002
1.971277e+002,2.608080e+002
1.980919e+002,2.595615e+002
1.990562e+002,2.565839e+002
2.000204e+002,2.545065e+002
2.009846e+002,2.540668e+002
2.019489e+002,2.539377e+002
2.029131e+002,2.537791e+002
2.038773e+002,2.535023e+002
2.048416e+002,2.534292e+002
2.058058e+002,2.542024e+002
2.067700e+002,2.549876e+002
2.077343e+002,2.551227e+002
2.086985e+002,2.541275e+002
2.096627e+002,2.522070e+002
2.106270e+002,2.502424e+002
2.115912e+002,2.483019e+002
2.125554e+002,2.468409e+002
2.135197e+002,2.463975e+002
2.144839e+002,2.476260e+002
2.154481e+002,2.477811e+002
2.164124e+002,2.465032e+002
2.173766e+002,2.446437e+002
2.183408e+002,2.435166e+002
2.193051e+002,2.441732e+002
2.202693e+002,2.442942e+002
2.212335e+002,2.427067e+002
2.221978e+002,2.400967e+002
2.231620e+002,2.379999e+002
2.241262e+002,2.388519e+002
2.250904e+002,2.407411e+002
2.260547e+002,2.423433e+002
2.270189e+002,2.432210e+002
2.279831e+002,2.433207e+002
2.289474e+002,2.426388e+002
2.299116e+002,2.415769e+002
2.308758e+002,2.408551e+002
2.318401e+002,2.408301e+002
2.328043e+002,2.416063e+002
2.337685e+002,2.424454e+002
2.347328e+002,2.428152e+002
2.356970e+002,2.428163e+002
2.366612e+002,2.427187e+002
2.376255e+002,2.428132e+002
2.385897e+002,2.423301e+002
2.395539e+002,2.399238e+002
2.405182e+002,2.377316e+002
2.414824e+002,2.375665e+002
2.424466e+002,2.407645e+002
2.434109e+002,2.445646e+002
2.443751e+002,2.450823e+002
2.453393e+002,2.434892e+002
2.463036e+002,2.411748e+002
2.472678e+002,2.396289e+002
2.482320e+002,2.391647e+002
2.491963e+002,2.389204e+002
2.501605e+002,2.386204e+002
2.511247e+002,2.385826e+002
2.520890e+002,2.394418e+002
2.530532e+002,2.425839e+002
2.540174e+002,2.446071e+002
2.549817e+002,2.448755e+002
2.559459e+002,2.443389e+002
2.569102e+002,2.446556e+002
2.578744e+002,2.473600e+002
2.588386e+002,2.490819e+002
2.598029e+002,2.486629e+002
2.607671e+002,2.466633e+002
2.617313e+002,2.443977e+002
2.626956e+002,2.434706e+002
2.636598e+002,2.435751e+002
2.646240e+002,2.442094e+002
2.655883e+002,2.451050e+002
2.665525e+002,2.460006e+002
2.675167e+002,2.463856e+002
2.684810e+002,2.463655e+002
2.694452e+002,2.466497e+002
2.704094e+002,2.474746e+002
2.713737e+002,2.488486e+002
2.723379e+002,2.503587e+002
2.733021e+002,2.524675e+002
2.742664e+002,2.538147e+002
2.752306e+002,2.536925e+002
2.761948e+002,2.520036e+002
2.771591e+002,2.503003e+002
2.781233e+002,2.497587e+002
2.790875e+002,2.499677e+002
2.800518e+002,2.507492e+002
2.810160e+002,2.519178e+002
2.819802e+002,2.532707e+002
2.829445e+002,2.545187e+002
2.839087e+002,2.556677e+002
2.848729e+002,2.565648e+002
2.858372e+002,2.570998e+002
2.868014e+002,2.572562e+002
2.877656e+002,2.572397e+002
2.887299e+002,2.564788e+002
2.896941e+002,2.555544e+002
2.906583e+002,2.551328e+002
2.916226e+002,2.559104e+002
2.925868e+002,2.562836e+002
2.935510e+002,2.552990e+002
2.945153e+002,2.541171e+002
2.954795e+002,2.538599e+002
2.964437e+002,2.554579e+002
2.974080e+002,2.571769e+002
2.983722e+002,2.573313e+002
2.993364e+002,2.566501e+002
3.003007e+002,2.560833e+002
3.012649e+002,2.567021e+002
3.022291e+002,2.584431e+002
3.031934e+002,2.596281e+002
3.041576e+002,2.603013e+002
3.051218e+002,2.606445e+002
3.060861e+002,2.608549e+002
3.070503e+002,2.602768e+002
3.080145e+002,2.597356e+002
3.089788e+002,2.597008e+002
3.099430e+002,2.600521e+002
3.109072e+002,2.604240e+002
3.118715e+002,2.603866e+002
3.128357e+002,2.610306e+002
3.137999e+002,2.628339e+002
3.147642e+002,2.650379e+002
3.157284e+002,2.664900e+002
3.166926e+002,2.656948e+002
3.176569e+002,2.642920e+002
3.186211e+002,2.645307e+002
3.195853e+002,2.664139e+002
3.205496e+002,2.690093e+002
3.215138e+002,2.701454e+002
3.224780e+002,2.690143e+002
3.234423e+002,2.678699e+002
3.244065e+002,2.666636e+002
3.253707e+002,2.655952e+002
3.263350e+002,2.653358e+002
3.272992e+002,2.671627e+002
3.282634e+002,2.691271e+002
3.292277e+002,2.710122e+002
3.301919e+002,2.727175e+002
3.311561e+002,2.742539e+002
3.321204e+002,2.758255e+002
3.330846e+002,2.767498e+002
3.340488e+002,2.761861e+002
3.350131e+002,2.743626e+002
3.359773e+002,2.722388e+002
3.369415e+002,2.721996e+002
3.379058e+002,2.739402e+002
3.388700e+002,2.756969e+002
3.398342e+002,2.771833e+002
3.407985e+002,2.783562e+002
3.417627e+002,2.787376e+002
3.427269e+002,2.762899e+002
3.436912e+002,2.747424e+002
3.446554e+002,2.753957e+002
3.456196e+002,2.780667e+002
3.465839e+002,2.805423e+002
3.475481e+002,2.822252e+002
3.485123e+002,2.833921e+002
3.494765e+002,2.834121e+002
3.504408e+002,2.823970e+002
3.514050e+002,2.812432e+002
3.523692e+002,2.819806e+002
3.533335e+002,2.835297e+002
3.542977e+002,2.847870e+002
3.552619e+002,2.854885e+002
3.562262e+002,2.859238e+002
3.571904e+002,2.870785e+002
3.581546e+002,2.890107e+002
3.591189e+002,2.902365e+002
3.600831e+002,2.898340e+002
3.610473e+002,2.878304e+002
3.620116e+002,2.865733e+002
3.629758e+002,2.871881e+002
3.639400e+002,2.879689e+002
3.649043e+002,2.886911e+002
3.658685e+002,2.892111e+002
3.668327e+002,2.893165e+002
3.677970e+002,2.878776e+002
3.687612e+002,2.867519e+002
3.697254e+002,2.872419e+002
3.706897e+002,2.893987e+002
3.716539e+002,2.921110e+002
3.726181e+002,2.923356e+002
3.735824e+002,2.906067e+002
3.745466e+002,2.893009e+002
3.755108e+002,2.892544e+002
3.764751e+002,2.904772e+002
3.774393e+002,2.918882e+002
3.784035e+002,2.944414e+002
3.793678e+002,2.957494e+002
3.803320e+002,2.944236e+002
3.812962e+002,2.910401e+002
3.822605e+002,2.891480e+002
3.832247e+002,2.921807e+002
3.841889e+002,2.952497e+002
3.851532e+002,2.970477e+002
3.861174e+002,2.972568e+002
3.870816e+002,2.962980e+002
3.880459e+002,2.933962e+002
3.890101e+002,2.903905e+002
3.899743e+002,2.898131e+002
3.909386e+002,2.921552e+002
3.919028e+002,2.964478e+002
3.928670e+002,2.993002e+002
3.938313e+002,3.001214e+002
3.947955e+002,3.001523e+002
3.957597e+002,2.992121e+002
3.967240e+002,2.976166e+002
3.976882e+002,2.966314e+002
3.986524e+002,2.967374e+002
3.996167e+002,2.974948e+002
4.005809e+002,2.991539e+002
4.015451e+002,3.011841e+002
4.025094e+002,3.025726e+002
4.034736e+002,3.025017e+002
4.044378e+002,3.021293e+002
4.054021e+002,3.017570e+002
4.063663e+002,3.014276e+002
4.073305e+002,3.011507e+002
4.082948e+002,3.010355e+002
4.092590e+002,3.011518e+002
4.102232e+002,3.019148e+002
4.111875e+002,3.035877e+002
4.121517e+002,3.054417e+002
4.131159e+002,3.057871e+002
4.140802e+002,3.031721e+002
4.150444e+002,3.018963e+002
4.160086e+002,3.023483e+002
4.169729e+002,3.038697e+002
4.179371e+002,3.054174e+002
4.189013e+002,3.062695e+002
4.198656e+002,3.063286e+002
4.208298e+002,3.057810e+002
4.217940e+002,3.050202e+002
4.227583e+002,3.045315e+002
4.237225e+002,3.048291e+002
4.246867e+002,3.061833e+002
4.256510e+002,3.079134e+002
4.266152e+002,3.097650e+002
4.275794e+002,3.115086e+002
4.285437e+002,3.129908e+002
4.295079e+002,3.142096e+002
4.304721e+002,3.152399e+002
4.314364e+002,3.167034e+002
4.324006e+002,3.180425e+002
4.333648e+002,3.182577e+002
4.343291e+002,3.160355e+002
4.352933e+002,3.149744e+002
4.362575e+002,3.169164e+002
4.372218e+002,3.196520e+002
4.381860e+002,3.215167e+002
4.391502e+002,3.216443e+002
4.401145e+002,3.207158e+002
4.410787e+002,3.192206e+002
4.420429e+002,3.178628e+002
4.430072e+002,3.174095e+002
4.439714e+002,3.182518e+002
4.449356e+002,3.200573e+002
4.458999e+002,3.214366e+002
4.468641e+002,3.225885e+002
4.478283e+002,3.236189e+002
4.487926e+002,3.248955e+002
4.497568e+002,3.267303e+002
4.507210e+002,3.279679e+002
4.516853e+002,3.272717e+002
4.526495e+002,3.261821e+002
4.536137e+002,3.254769e+002
4.545780e+002,3.253319e+002
4.555422e+002,3.250841e+002
4.565064e+002,3.235164e+002
4.574707e+002,3.224099e+002
4.584349e+002,3.230703e+002
4.593991e+002,3.253718e+002
4.603634e+002,3.279646e+002
4.613276e+002,3.279599e+002
4.622918e+002,3.259398e+002
4.632561e+002,3.245600e+002
4.642203e+002,3.244958e+002
4.651845e+002,3.253716e+002
4.661488e+002,3.258132e+002
4.671130e+002,3.250111e+002
4.680772e+002,3.241363e+002
4.690415e+002,3.235203e+002
4.700057e+002,3.231084e+002
4.709699e+002,3.225829e+002
4.719342e+002,3.214640e+002
4.728984e+002,3.204854e+002
4.738626e+002,3.199867e+002
4.748269e+002,3.197758e+002
4.757911e+002,3.196242e+002
4.767553e+002,3.193869e+002
4.777196e+002,3.193431e+002
4.786838e+002,3.198325e+002
4.796480e+002,3.204854e+002
4.806123e+002,3.204316e+002
4.815765e+002,3.187650e+002
4.825407e+002,3.149582e+002
4.835050e+002,3.135784e+002
4.844692e+002,3.164044e+002
4.854334e+002,3.195617e+002
4.863977e+002,3.199317e+002
4.873619e+002,3.163292e+002
4.883261e+002,3.128629e+002
4.892904e+002,3.120388e+002
4.902546e+002,3.121536e+002
4.912188e+002,3.121857e+002
4.921831e+002,3.115940e+002
4.931473e+002,3.104666e+002
4.941115e+002,3.086216e+002
4.950758e+002,3.067255e+002
4.960400e+002,3.056541e+002
4.970042e+002,3.057768e+002
4.979685e+002,3.069395e+002
4.989327e+002,3.081841e+002
4.998969e+002,3.091924e+002
5.008612e+002,3.097366e+002
5.018254e+002,3.095374e+002
5.027896e+002,3.087712e+002
5.037539e+002,3.080794e+002
5.047181e+002,3.080362e+002
5.056823e+002,3.082997e+002
5.066466e+002,3.089075e+002
5.076108e+002,3.096595e+002
5.085750e+002,3.102041e+002
5.095393e+002,3.100576e+002
5.105035e+002,3.094453e+002
5.114677e+002,3.089721e+002
5.124320e+002,3.089410e+002
5.133962e+002,3.096527e+002
5.143605e+002,3.112779e+002
5.153247e+002,3.136081e+002
5.162889e+002,3.154780e+002
5.172532e+002,3.169421e+002
5.182174e+002,3.186309e+002
5.191816e+002,3.211450e+002
5.201459e+002,3.246773e+002
5.211101e+002,3.272227e+002
5.220743e+002,3.272111e+002
5.230386e+002,3.272888e+002
5.240028e+002,3.290074e+002
5.249670e+002,3.328019e+002
5.259313e+002,3.376674e+002
5.268955e+002,3.423016e+002
5.278597e+002,3.466396e+002
5.288240e+002,3.509225e+002
5.297882e+002,3.552446e+002
5.307524e+002,3.596133e+002
5.317167e+002,3.641252e+002
5.326809e+002,3.692444e+002
5.336451e+002,3.737276e+002
5.346094e+002,3.764018e+002
5.355736e+002,3.781518e+002
5.365378e+002,3.812138e+002
5.375021e+002,3.873700e+002
5.384663e+002,3.933186e+002
5.394305e+002,3.987042e+002
5.403948e+002,4.036937e+002
5.413590e+002,4.084048e+002
5.423232e+002,4.126794e+002
5.432875e+002,4.161886e+002
5.442517e+002,4.189940e+002
5.452159e+002,4.221752e+002
5.461802e+002,4.266628e+002
5.471444e+002,4.325052e+002
5.481086e+002,4.383217e+002
5.490729e+002,4.400790e+002
5.500371e+002,4.390861e+002
5.510013e+002,4.385783e+002
5.519656e+002,4.399350e+002
5.529298e+002,4.428362e+002
5.538940e+002,4.449698e+002
5.548583e+002,4.451293e+002
5.558225e+002,4.443287e+002
5.567867e+002,4.423709e+002
5.577510e+002,4.398919e+002
5.587152e+002,4.379497e+002
5.596794e+002,4.373463e+002
5.606437e+002,4.376673e+002
5.616079e+002,4.386765e+002
5.625721e+002,4.398203e+002
5.635364e+002,4.404931e+002
5.645006e+002,4.401767e+002
5.654648e+002,4.385915e+002
5.664291e+002,4.355120e+002
5.673933e+002,4.317132e+002
5.683575e+002,4.286745e+002
5.693218e+002,4.271992e+002
5.702860e+002,4.269154e+002
5.712502e+002,4.249948e+002
5.722145e+002,4.208561e+002
5.731787e+002,4.162110e+002
5.741429e+002,4.114185e+002
5.751072e+002,4.069876e+002
5.760714e+002,4.039727e+002
5.770356e+002,4.044641e+002
5.779999e+002,4.050639e+002
5.789641e+002,4.031227e+002
5.799283e+002,3.991147e+002
5.808926e+002,3.948781e+002
5.818568e+002,3.926105e+002
5.828210e+002,3.917782e+002
5.837853e+002,3.893158e+002
5.847495e+002,3.853731e+002
5.857137e+002,3.813926e+002
5.866780e+002,3.788002e+002
5.876422e+002,3.780387e+002
5.886064e+002,3.768305e+002
5.895707e+002,3.755949e+002
5.905349e+002,3.738308e+002
5.914991e+002,3.707327e+002
5.924634e+002,3.662446e+002
5.934276e+002,3.619816e+002
5.943918e+002,3.598986e+002
5.953560e+002,3.581217e+002
5.963203e+002,3.556662e+002
5.972845e+002,3.524045e+002
5.982487e+002,3.487116e+002
5.992130e+002,3.452417e+002
6.001772e+002,3.423977e+002
6.011414e+002,3.395397e+002
6.021057e+002,3.360337e+002
6.030699e+002,3.322534e+002
6.040341e+002,3.292108e+002
6.049984e+002,3.281325e+002
6.059626e+002,3.252791e+002
6.069268e+002,3.200468e+002
6.078911e+002,3.150930e+002
6.088553e+002,3.117154e+002
6.098195e+002,3.097902e+002
6.107838e+002,3.078073e+002
6.117480e+002,3.053123e+002
6.127122e+002,3.027396e+002
6.136765e+002,3.000753e+002
6.146407e+002,2.971623e+002
6.156049e+002,2.937545e+002
6.165692e+002,2.896048e+002
6.175334e+002,2.850223e+002
6.184976e+002,2.814267e+002
6.194619e+002,2.791156e+002
6.204261e+002,2.774383e+002
6.213903e+002,2.755698e+002
6.223546e+002,2.734484e+002
6.233188e+002,2.705150e+002
6.242830e+002,2.661344e+002
6.252473e+002,2.615932e+002
6.262115e+002,2.575770e+002
6.271757e+002,2.542814e+002
6.281400e+002,2.516348e+002
6.291042e+002,2.505614e+002
6.300684e+002,2.495164e+002
6.310327e+002,2.475044e+002
6.319969e+002,2.445545e+002
6.329611e+002,2.413152e+002
6.339254e+002,2.385635e+002
6.348896e+002,2.361229e+002
6.358538e+002,2.337759e+002
6.368181e+002,2.317627e+002
6.377823e+002,2.298083e+002
6.387465e+002,2.274947e+002
6.397108e+002,2.246186e+002
6.406750e+002,2.222079e+002
6.416392e+002,2.200992e+002
6.426035e+002,2.179586e+002
6.435677e+002,2.161194e+002
6.445319e+002,2.145263e+002
6.454962e+002,2.121238e+002
6.464604e+002,2.066964e+002
6.474246e+002,2.013862e+002
6.483889e+002,1.983471e+002
6.493531e+002,1.972878e+002
6.503173e+002,1.969766e+002
6.512816e+002,1.961224e+002
6.522458e+002,1.947235e+002
6.532100e+002,1.922248e+002
6.541743e+002,1.883828e+002
6.551385e+002,1.847602e+002
6.561027e+002,1.827484e+002
6.570670e+002,1.825964e+002
6.580312e+002,1.816154e+002
6.589954e+002,1.789349e+002
6.599597e+002,1.757759e+002
6.609239e+002,1.725806e+002
6.618881e+002,1.696271e+002
6.628524e+002,1.671232e+002
6.638166e+002,1.653377e+002
6.647808e+002,1.637946e+002
6.657451e+002,1.618721e+002
6.667093e+002,1.595603e+002
6.676735e+002,1.570843e+002
6.686378e+002,1.547250e+002
6.696020e+002,1.524949e+002
6.705662e+002,1.501755e+002
6.715305e+002,1.477997e+002
6.724947e+002,1.452392e+002
6.734589e+002,1.422142e+002
6.744232e+002,1.389500e+002
6.753874e+002,1.370003e+002
6.763516e+002,1.385173e+002
6.773159e+002,1.392001e+002
6.782801e+002,1.375028e+002
6.792443e+002,1.341969e+002
6.802086e+002,1.307693e+002
6.811728e+002,1.281537e+002
6.821370e+002,1.258829e+002
6.831013e+002,1.233404e+002
6.840655e+002,1.208900e+002
6.850297e+002,1.190083e+002
6.859940e+002,1.179180e+002
6.869582e+002,1.174043e+002
6.879224e+002,1.165869e+002
6.888867e+002,1.154767e+002
6.898509e+002,1.138696e+002
6.908151e+002,1.118564e+002
6.917794e+002,1.095204e+002
6.927436e+002,1.066724e+002
6.937078e+002,1.023550e+002
6.946721e+002,9.909763e+001
6.956363e+002,9.839919e+001
6.966005e+002,9.862392e+001
6.975648e+002,9.786009e+001
6.985290e+002,9.526060e+001
6.994932e+002,9.221608e+001
7.004575e+002,9.226555e+001
7.014217e+002,9.383553e+001
7.023859e+002,9.441179e+001
7.033502e+002,9.335829e+001
7.043144e+002,9.112956e+001
7.052786e+002,8.847160e+001
7.062429e+002,8.414070e+001
7.072071e+002,8.160182e+001
7.081713e+002,8.265050e+001
7.091356e+002,8.428047e+001
7.100998e+002,8.351222e+001
7.110640e+002,7.952982e+001
7.120283e+002,7.606055e+001
7.129925e+002,7.572017e+001
7.139567e+002,7.604376e+001
7.149210e+002,7.590182e+001
7.158852e+002,7.507344e+001
7.168494e+002,7.387466e+001
7.178137e+002,7.265686e+001
7.187779e+002,7.152850e+001
7.197421e+002,7.048859e+001
7.207064e+002,6.942848e+001
7.216706e+002,6.852121e+001
7.226348e+002,6.815926e+001
7.235991e+002,6.863972e+001
7.245633e+002,6.846947e+001
7.255275e+002,6.648766e+001
7.264918e+002,6.471790e+001
7.274560e+002,6.428569e+001
7.284202e+002,6.479776e+001
7.293845e+002,6.473300e+001
7.303487e+002,6.273596e+001
7.313129e+002,6.067574e+001
7.322772e+002,6.025932e+001
7.332414e+002,6.078873e+001
7.342056e+002,6.117741e+001
7.351699e+002,6.076382e+001
7.361341e+002,5.992000e+001
7.370983e+002,6.007370e+001
7.380626e+002,6.103094e+001
7.390268e+002,6.195657e+001
7.399910e+002,6.300465e+001
7.409553e+002,6.411211e+001
7.419195e+002,6.483128e+001
7.428837e+002,6.490555e+001
7.438480e+002,6.430936e+001
7.448122e+002,6.221536e+001
7.457764e+002,6.061455e+001
7.467407e+002,6.166454e+001
7.477049e+002,6.578133e+001
7.486691e+002,7.020633e+001
7.496334e+002,7.086823e+001
7.505976e+002,6.967566e+001
7.515618e+002,6.915712e+001
7.525261e+002,6.972993e+001
7.534903e+002,7.072404e+001
7.544545e+002,7.118832e+001
7.554188e+002,7.120251e+001
7.563830e+002,7.142609e+001
7.573472e+002,7.105806e+001
7.583115e+002,7.093932e+001
7.592757e+002,7.204445e+001
7.602399e+002,7.442203e+001
7.612042e+002,7.653044e+001
7.621684e+002,7.688374e+001
7.631326e+002,7.717166e+001
7.640969e+002,7.804355e+001
7.650611e+002,7.946005e+001
7.660253e+002,8.151662e+001
7.669896e+002,8.441129e+001
7.679538e+002,8.764250e+001
7.689180e+002,8.878630e+001
7.698823e+002,8.793190e+001
7.708465e+002,8.685255e+001
7.718107e+002,8.651260e+001
7.727750e+002,8.692368e+001
7.737392e+002,8.737784e+001
7.747034e+002,8.783440e+001
7.756677e+002,8.840201e+001
7.766319e+002,8.897668e+001
7.775961e+002,8.948531e+001
7.785604e+002,8.993686e+001
7.795246e+002,9.034283e+001
7.804888e+002,9.053081e+001
7.814531e+002,8.962608e+001
7.824173e+002,8.889372e+001
7.833815e+002,8.986842e+001
7.843458e+002,9.236607e+001
7.853100e+002,9.471123e+001
7.862742e+002,9.468391e+001
7.872385e+002,9.195976e+001
7.882027e+002,9.064098e+001
7.891669e+002,9.122299e+001
7.901312e+002,9.176439e+001
7.910954e+002,9.132423e+001
7.920596e+002,9.022125e+001
7.930239e+002,8.958318e+001
7.939881e+002,9.000691e+001
7.949523e+002,9.004817e+001
7.959166e+002,8.872392e+001
7.968808e+002,8.692711e+001
7.978450e+002,8.601277e+001
7.988093e+002,8.669011e+001
7.997735e+002,8.777837e+001
8.007377e+002,8.691008e+001
8.017020e+002,8.492761e+001
8.026662e+002,8.303070e+001
8.036304e+002,8.154134e+001
8.045947e+002,8.033804e+001
8.055589e+002,7.921771e+001
8.065231e+002,7.826326e+001
8.074874e+002,7.707349e+001
8.084516e+002,7.522595e+001
8.094158e+002,7.359512e+001
8.103801e+002,7.327673e+001
8.113443e+002,7.425783e+001
8.123085e+002,7.467154e+001
8.132728e+002,7.231407e+001
8.142370e+002,6.966106e+001
8.152012e+002,6.845815e+001
8.161655e+002,6.804561e+001
8.171297e+002,6.729181e+001
8.180939e+002,6.553328e+001
8.190582e+002,6.331418e+001
8.200224e+002,6.179523e+001
8.209866e+002,6.080328e+001
8.219509e+002,5.972783e+001
8.229151e+002,5.823351e+001
8.238793e+002,5.645184e+001
8.248436e+002,5.484709e+001
8.258078e+002,5.378445e+001
8.267720e+002,5.217091e+001
8.277363e+002,4.925562e+001
8.287005e+002,4.615475e+001
8.296647e+002,4.362540e+001
8.306290e+002,4.189769e+001
8.315932e+002,4.080721e+001
8.325574e+002,4.039598e+001
8.335217e+002,4.021252e+001
8.344859e+002,3.934927e+001
8.354501e+002,3.780493e+001
8.364144e+002,3.604283e+001
8.373786e+002,3.443236e+001
8.383428e+002,3.308070e+001
8.393071e+002,3.285168e+001
8.402713e+002,3.535632e+001
8.412355e+002,3.690100e+001
8.421998e+002,3.679292e+001
8.431640e+002,3.545378e+001
8.441282e+002,3.317699e+001
8.450925e+002,2.964575e+001
8.460567e+002,2.684634e+001
8.470209e+002,2.644235e+001
8.479852e+002,2.699541e+001
8.489494e+002,2.779587e+001
8.499136e+002,2.854161e+001
8.508779e+002,2.900526e+001
8.518421e+002,2.879530e+001
8.528063e+002,2.790602e+001
8.537706e+002,2.780283e+001
8.547348e+002,2.890021e+001
8.556990e+002,2.970145e+001
8.566633e+002,2.892732e+001
8.576275e+002,2.677847e+001
8.585917e+002,2.539532e+001
8.595560e+002,2.601137e+001
8.605202e+002,2.628642e+001
8.614844e+002,2.521498e+001
8.624487e+002,2.384399e+001
8.634129e+002,2.326491e+001
8.643771e+002,2.376360e+001
8.653414e+002,2.451007e+001
8.663056e+002,2.460385e+001
8.672698e+002,2.463692e+001
8.682341e+002,2.528265e+001
8.691983e+002,2.647327e+001
8.701625e+002,2.765314e+001
8.711268e+002,2.824680e+001
8.720910e+002,2.815094e+001
8.730552e+002,2.742459e+001
8.740195e+002,2.642412e+001
8.749837e+002,2.552502e+001
8.759479e+002,2.436597e+001
8.769122e+002,2.312019e+001
8.778764e+002,2.220972e+001
8.788406e+002,2.168701e+001
8.798049e+002,2.162199e+001
8.807691e+002,2.304483e+001
8.817333e+002,2.484174e+001
8.826976e+002,2.544920e+001
8.836618e+002,2.456857e+001
8.846260e+002,2.323486e+001
8.855903e+002,2.310802e+001
8.865545e+002,2.429773e+001
8.875187e+002,2.586951e+001
8.884830e+002,2.872734e+001
8.894472e+002,3.089380e+001
8.904114e+002,3.095673e+001
8.913757e+002,2.927980e+001
8.923399e+002,2.769672e+001
8.933041e+002,2.573550e+001
8.942684e+002,2.496817e+001
8.952326e+002,2.710063e+001
8.961968e+002,3.014075e+001
8.971611e+002,3.185208e+001
8.981253e+002,3.151674e+001
8.990895e+002,3.050197e+001
9.000538e+002,3.086224e+001
9.010180e+002,3.223897e+001
9.019822e+002,3.271422e+001
9.029465e+002,3.200600e+001
9.039107e+002,3.121695e+001
9.048749e+002,3.128473e+001
9.058392e+002,3.218355e+001
9.068034e+002,3.351093e+001
9.077676e+002,3.631189e+001
9.087319e+002,3.847137e+001
9.096961e+002,3.920882e+001
9.106603e+002,3.936705e+001
9.116246e+002,3.981087e+001
9.125888e+002,4.078741e+001
9.135530e+002,4.225256e+001
9.145173e+002,4.480762e+001
9.154815e+002,4.750095e+001
9.164457e+002,4.923506e+001
9.174100e+002,5.001144e+001
9.183742e+002,5.035435e+001
9.193384e+002,5.066719e+001
9.203027e+002,5.081892e+001
9.212669e+002,5.208463e+001
9.222311e+002,5.451349e+001
9.231954e+002,5.702795e+001
9.241596e+002,6.005846e+001
9.251238e+002,6.324940e+001
9.260881e+002,6.560368e+001
9.270523e+002,6.653674e+001
9.280165e+002,6.762634e+001
9.289808e+002,7.075702e+001
9.299450e+002,7.424336e+001
9.309092e+002,7.638399e+001
9.318735e+002,7.707185e+001
9.328377e+002,7.749200e+001
9.338019e+002,7.904858e+001
9.347662e+002,8.171255e+001
9.357304e+002,8.390767e+001
9.366946e+002,8.596472e+001
9.376589e+002,8.770854e+001
9.386231e+002,8.829033e+001
9.395873e+002,8.835954e+001
9.405516e+002,8.989415e+001
9.415158e+002,9.409241e+001
9.424800e+002,9.756097e+001
9.434443e+002,9.842020e+001
9.444085e+002,9.869557e+001
9.453727e+002,9.981268e+001
9.463370e+002,1.017636e+002
9.473012e+002,1.034556e+002
9.482654e+002,1.037371e+002
9.492297e+002,1.028887e+002
9.501939e+002,1.030866e+002
9.511581e+002,1.046139e+002
9.521224e+002,1.061815e+002
9.530866e+002,1.070932e+002
9.540508e+002,1.074966e+002
9.550151e+002,1.078990e+002
9.559793e+002,1.082175e+002
9.569435e+002,1.081531e+002
9.579078e+002,1.080531e+002
9.588720e+002,1.081652e+002
9.598362e+002,1.085709e+002
9.608005e+002,1.090664e+002
9.617647e+002,1.091473e+002
9.627289e+002,1.082858e+002
9.636932e+002,1.073577e+002
9.646574e+002,1.084788e+002
9.656216e+002,1.109137e+002
9.665859e+002,1.129053e+002
9.675501e+002,1.139197e+002
9.685143e+002,1.143898e+002
9.694786e+002,1.149117e+002
9.704428e+002,1.152885e+002
9.714070e+002,1.165033e+002
9.723713e+002,1.179514e+002
9.733355e+002,1.198593e+002
9.742997e+002,1.231828e+002
9.752640e+002,1.274347e+002
9.762282e+002,1.311165e+002
9.771924e+002,1.332044e+002
9.781567e+002,1.345053e+002
9.791209e+002,1.359441e+002
9.800851e+002,1.375996e+002
9.810494e+002,1.395843e+002
9.820136e+002,1.420228e+002
9.829778e+002,1.450742e+002
9.839421e+002,1.489426e+002
9.849063e+002,1.537329e+002
9.858705e+002,1.565209e+002
9.868348e+002,1.569358e+002
9.877990e+002,1.572449e+002
9.887632e+002,1.578238e+002
9.897275e+002,1.585855e+002
9.906917e+002,1.592315e+002
9.916559e+002,1.593973e+002
9.926202e+002,1.593387e+002
9.935844e+002,1.605314e+002
9.945486e+002,1.616681e+002
9.955129e+002,1.611776e+002
9.964771e+002,1.592836e+002
9.974413e+002,1.573360e+002
9.984056e+002,1.564903e+002
9.993698e+002,1.565048e+002
1.000334e+003,1.565505e+002
1.001298e+003,1.568014e+002
1.002263e+003,1.570791e+002
1.003227e+003,1.571714e+002
1.004191e+003,1.573377e+002
1.005155e+003,1.576918e+002
1.006119e+003,1.581896e+002
1.007084e+003,1.595034e+002
1.008048e+003,1.632088e+002
1.009012e+003,1.671426e+002
1.009976e+003,1.700513e+002
1.010941e+003,1.718241e+002
1.011905e+003,1.724776e+002
1.012869e+003,1.721333e+002
1.013833e+003,1.713235e+002
1.014798e+003,1.713821e+002
1.015762e+003,1.728618e+002
1.016726e+003,1.751291e+002
1.017690e+003,1.785664e+002
1.018654e+003,1.822945e+002
1.019619e+003,1.856316e+002
1.020583e+003,1.885272e+002
1.021547e+003,1.912094e+002
1.022511e+003,1.932829e+002
1.023476e+003,1.955912e+002
1.024440e+003,1.989388e+002
1.025404e+003,2.028107e+002
1.026368e+003,2.068818e+002
1.027333e+003,2.108615e+002
1.028297e+003,2.142894e+002
1.029261e+003,2.163906e+002
1.030225e+003,2.172120e+002
1.031190e+003,2.195914e+002
1.032154e+003,2.244043e+002
1.033118e+003,2.290765e+002
1.034082e+003,2.319939e+002
1.035047e+003,2.338655e+002
1.036011e+003,2.364675e+002
1.036975e+003,2.400442e+002
1.037939e+003,2.434108e+002
1.038903e+003,2.466246e+002
1.039868e+003,2.499238e+002
1.040832e+003,2.526807e+002
1.041796e+003,2.553575e+002
1.042760e+003,2.592617e+002
1.043725e+003,2.652676e+002
1.044689e+003,2.721121e+002
1.045653e+003,2.767265e+002
1.046617e+003,2.792146e+002
1.047582e+003,2.819014e+002
1.048546e+003,2.854715e+002
1.049510e+003,2.897139e+002
1.050474e+003,2.941720e+002
1.051438e+003,2.986359e+002
1.052403e+003,3.032596e+002
1.053367e+003,3.086920e+002
1.054331e+003,3.130890e+002
1.055295e+003,3.151405e+002
1.056260e+003,3.167289e+002
1.057224e+003,3.199278e+002
1.058188e+003,3.250993e+002
1.059152e+003,3.307530e+002
1.060117e+003,3.352241e+002
1.061081e+003,3.388064e+002
1.062045e+003,3.430810e+002
1.063009e+003,3.477052e+002
1.063974e+003,3.524763e+002
1.064938e+003,3.582933e+002
1.065902e+003,3.645415e+002
1.066866e+003,3.690467e+002
1.067830e+003,3.708132e+002
1.068795e+003,3.729927e+002
1.069759e+003,3.764060e+002
1.070723e+003,3.806366e+002
1.071687e+003,3.863383e+002
1.072652e+003,3.928981e+002
1.073616e+003,3.989732e+002
1.074580e+003,4.036817e+002
1.075544e+003,4.075237e+002
1.076509e+003,4.117376e+002
1.077473e+003,4.164111e+002
1.078437e+003,4.209240e+002
1.079401e+003,4.251609e+002
1.080365e+003,4.298598e+002
1.081330e+003,4.359948e+002
1.082294e+003,4.430820e+002
1.083258e+003,4.481803e+002
1.084222e+003,4.498931e+002
1.085187e+003,4.521689e+002
1.086151e+003,4.573943e+002
1.087115e+003,4.623782e+002
1.088079e+003,4.640612e+002
1.089043e+003,4.630399e+002
1.090008e+003,4.624433e+002
1.090972e+003,4.646396e+002
1.091936e+003,4.684291e+002
1.092900e+003,4.707336e+002
1.093865e+003,4.717262e+002
1.094829e+003,4.724049e+002
1.095793e+003,4.735046e+002
1.096757e+003,4.740247e+002
1.097722e+003,4.719862e+002
1.098686e+003,4.670544e+002
1.099650e+003,4.632562e+002
1.100614e+003,4.632103e+002
1.101578e+003,4.627455e+002
1.102543e+003,4.600570e+002
1.103507e+003,4.564718e+002
1.104471e+003,4.532093e+002
1.105435e+003,4.502324e+002
1.106400e+003,4.466152e+002
1.107364e+003,4.418213e+002
1.108328e+003,4.364815e+002
1.109292e+003,4.315809e+002
1.110257e+003,4.271867e+002
1.111221e+003,4.236804e+002
1.112185e+003,4.214009e+002
1.113149e+003,4.189860e+002
1.114114e+003,4.148336e+002
1.115078e+003,4.090598e+002
1.116042e+003,4.028177e+002
1.117006e+003,3.961779e+002
1.117970e+003,3.894956e+002
1.118935e+003,3.822626e+002
1.119899e+003,3.749330e+002
1.120863e+003,3.686200e+002
1.121827e+003,3.635815e+002
1.122792e+003,3.584550e+002
1.123756e+003,3.511313e+002
1.124720e+003,3.418157e+002
1.125684e+003,3.356664e+002
1.126649e+003,3.338723e+002
1.127613e+003,3.314577e+002
1.128577e+003,3.261569e+002
1.129541e+003,3.191783e+002
1.130505e+003,3.120365e+002
1.131470e+003,3.045574e+002
1.132434e+003,2.981392e+002
1.133398e+003,2.946071e+002
1.134362e+003,2.914511e+002
1.135327e+003,2.877788e+002
1.136291e+003,2.834024e+002
1.137255e+003,2.780788e+002
1.138219e+003,2.719210e+002
1.139184e+003,2.656374e+002
1.140148e+003,2.600605e+002
1.141112e+003,2.549471e+002
1.142076e+003,2.505362e+002
1.143041e+003,2.478624e+002
1.144005e+003,2.445081e+002
1.144969e+003,2.388347e+002
1.145933e+003,2.324312e+002
1.146897e+003,2.279474e+002
1.147862e+003,2.255948e+002
1.148826e+003,2.226075e+002
1.149790e+003,2.173700e+002
1.150754e+003,2.120322e+002
1.151719e+003,2.078118e+002
1.152683e+003,2.044047e+002
1.153647e+003,2.014224e+002
1.154611e+003,1.986103e+002
1.155576e+003,1.954091e+002
1.156540e+003,1.908030e+002
1.157504e+003,1.843510e+002
1.158468e+003,1.793103e+002
1.159432e+003,1.769202e+002
1.160397e+003,1.743514e+002
1.161361e+003,1.710818e+002
1.162325e+003,1.675865e+002
1.163289e+003,1.641146e+002
1.164254e+003,1.605835e+002
1.165218e+003,1.573302e+002
1.166182e+003,1.549090e+002
1.167146e+003,1.526409e+002
1.168111e+003,1.498715e+002
1.169075e+003,1.466807e+002
1.170039e+003,1.431155e+002
1.171003e+003,1.392942e+002
1.171968e+003,1.358216e+002
1.172932e+003,1.336998e+002
1.173896e+003,1.331083e+002
1.174860e+003,1.309681e+002
1.175824e+003,1.255988e+002
1.176789e+003,1.205984e+002
1.177753e+003,1.159925e+002
1.178717e+003,1.122697e+002
1.179681e+003,1.103168e+002
1.180646e+003,1.097608e+002
1.181610e+003,1.086095e+002
1.182574e+003,1.056730e+002
1.183538e+003,1.020744e+002
1.184503e+003,9.919627e+001
1.185467e+003,9.680804e+001
1.186431e+003,9.458702e+001
1.187395e+003,9.237440e+001
1.188359e+003,8.997511e+001
1.189324e+003,8.725237e+001
1.190288e+003,8.440440e+001
1.191252e+003,8.228836e+001
1.192216e+003,8.182384e+001
1.193181e+003,8.021008e+001
1.194145e+003,7.566917e+001
1.195109e+003,7.113759e+001
1.196073e+003,6.910188e+001
1.197038e+003,6.892316e+001
1.198002e+003,6.829521e+001
1.198966e+003,6.601326e+001
1.199930e+003,6.314290e+001
1.200895e+003,6.126881e+001
1.201859e+003,6.017020e+001
1.202823e+003,5.891776e+001
1.203787e+003,5.741968e+001
1.204751e+003,5.572316e+001
1.205716e+003,5.390489e+001
1.206680e+003,5.195845e+001
1.207644e+003,4.971387e+001
1.208608e+003,4.696898e+001
1.209573e+003,4.448904e+001
1.210537e+003,4.314169e+001
1.211501e+003,4.174326e+001
1.212465e+003,3.928816e+001
1.213430e+003,3.663899e+001
1.214394e+003,3.510844e+001
1.215358e+003,3.488942e+001
1.216322e+003,3.482187e+001
1.217286e+003,3.373015e+001
1.218251e+003,3.182175e+001
1.219215e+003,2.990991e+001
1.220179e+003,2.808942e+001
1.221143e+003,2.646042e+001
1.222108e+003,2.450285e+001
1.223072e+003,2.313382e+001
1.224036e+003,2.385904e+001
1.225000e+003,2.627577e+001
1.225965e+003,2.722176e+001
1.226929e+003,2.514020e+001
1.227893e+003,2.226360e+001
1.228857e+003,2.032065e+001
1.229822e+003,1.913026e+001
1.230786e+003,1.805775e+001
1.231750e+003,1.699794e+001
1.232714e+003,1.657207e+001
1.233678e+003,1.738065e+001
1.234643e+003,1.890721e+001
1.235607e+003,1.924110e+001
1.236571e+003,1.809377e+001
1.237535e+003,1.697343e+001
1.238500e+003,1.530919e+001
1.239464e+003,1.404657e+001
1.240428e+003,1.384044e+001
1.241392e+003,1.409911e+001
1.242357e+003,1.392592e+001
1.243321e+003,1.321974e+001
1.244285e+003,1.268803e+001
1.245249e+003,1.290218e+001
1.246214e+003,1.348207e+001
1.247178e+003,1.352721e+001
1.248142e+003,1.304489e+001
1.249106e+003,1.281534e+001
1.250070e+003,1.338966e+001
1.251035e+003,1.397517e+001
1.251999e+003,1.306322e+001
1.252963e+003,1.052496e+001
1.253927e+003,8.876297e+000
1.254892e+003,8.377380e+000
1.255856e+003,8.836456e+000
1.256820e+003,1.106448e+001
1.257784e+003,1.329370e+001
1.258749e+003,1.391408e+001
1.259713e+003,1.327786e+001
1.260677e+003,1.299089e+001
1.261641e+003,1.397420e+001
1.262605e+003,1.528764e+001
1.263570e+003,1.530107e+001
1.264534e+003,1.397498e+001
1.265498e+003,1.258391e+001
1.266462e+003,1.080237e+001
1.267427e+003,9.743744e+000
1.268391e+003,1.049945e+001
1.269355e+003,1.175438e+001
1.270319e+003,1.116649e+001
1.271284e+003,8.593262e+000
1.272248e+003,6.971344e+000
1.273212e+003,8.163849e+000
1.274176e+003,9.991974e+000
1.275141e+003,1.066373e+001
1.276105e+003,1.037698e+001
1.277069e+003,9.468536e+000
1.278033e+003,8.333359e+000
1.278997e+003,7.784805e+000
1.279962e+003,8.681076e+000
1.280926e+003,1.077676e+001
1.281890e+003,1.192780e+001
1.282854e+003,1.095810e+001
1.283819e+003,9.869247e+000
1.284783e+003,8.981094e+000
1.285747e+003,8.021835e+000
1.286711e+003,6.567963e+000
1.287676e+003,5.309357e+000
1.288640e+003,5.359711e+000
1.289604e+003,6.822433e+000
1.290568e+003,8.411255e+000
1.291532e+003,9.158463e+000
1.292497e+003,9.245331e+000
1.293461e+003,9.075089e+000
1.294425e+003,8.789200e+000
1.295389e+003,8.654404e+000
1.296354e+003,8.712036e+000
1.297318e+003,8.791534e+000
1.298282e+003,8.717117e+000
1.299246e+003,8.489578e+000
1.300211e+003,8.322891e+000
1.301175e+003,8.500977e+000
1.302139e+003,8.595718e+000
1.303103e+003,8.318481e+000
1.304068e+003,7.603424e+000
1.305032e+003,5.997986e+000
1.305996e+003,4.167511e+000
1.306960e+003,3.381729e+000
1.307924e+003,4.126068e+000
1.308889e+003,5.570602e+000
1.309853e+003,6.468048e+000
1.310817e+003,6.547806e+000
1.311781e+003,6.137253e+000
1.312746e+003,5.764771e+000
1.313710e+003,5.274277e+000
1.314674e+003,4.012131e+000
1.315638e+003,2.978638e+000
1.316603e+003,2.921799e+000
1.317567e+003,3.460175e+000
1.318531e+003,3.934967e+000
1.319495e+003,4.428009e+000
1.320459e+003,4.938782e+000
1.321424e+003,4.846573e+000
1.322388e+003,4.539032e+000
1.323352e+003,5.092529e+000
1.324316e+003,6.393005e+000
1.325281e+003,7.537720e+000
1.326245e+003,8.154175e+000
1.327209e+003,8.392654e+000
1.328173e+003,8.523865e+000
1.329138e+003,8.538879e+000
1.330102e+003,7.911346e+000
1.331066e+003,6.209167e+000
1.332030e+003,4.971710e+000
1.332995e+003,4.437332e+000
1.333959e+003,4.210571e+000
1.334923e+003,4.149872e+000
1.335887e+003,4.161957e+000
1.336851e+003,4.280640e+000
1.337816e+003,4.567825e+000
1.338780e+003,4.916901e+000
1.339744e+003,5.028030e+000
1.340708e+003,4.738876e+000
1.341673e+003,4.026215e+000
1.342637e+003,2.228012e+000
1.343601e+003,1.602188e+000
1.344565e+003,3.538513e+000
1.345530e+003,5.910812e+000
1.346494e+003,7.238724e+000
1.347458e+003,7.624313e+000
1.348422e+003,7.492249e+000
1.349386e+003,6.833038e+000
1.350351e+003,6.077835e+000
1.351315e+003,5.710022e+000
1.352279e+003,5.658478e+000
1.353243e+003,5.716644e+000
1.354208e+003,5.878128e+000
1.355172e+003,5.968063e+000
1.356136e+003,5.786697e+000
1.357100e+003,5.455795e+000
1.358065e+003,5.279602e+000
1.359029e+003,5.292038e+000
1.359993e+003,5.138489e+000
1.360957e+003,4.767670e+000
1.361922e+003,4.540222e+000
1.362886e+003,4.584854e+000
1.363850e+003,4.708908e+000
1.364814e+003,4.770950e+000
1.365778e+003,4.679108e+000
1.366743e+003,4.306732e+000
1.367707e+003,3.738831e+000
1.368671e+003,3.433014e+000
1.369635e+003,3.916367e+000
1.370600e+003,5.061554e+000
1.371564e+003,5.774200e+000
1.372528e+003,5.719391e+000
1.373492e+003,5.483994e+000
1.374457e+003,4.467651e+000
1.375421e+003,3.806610e+000
1.376385e+003,4.615845e+000
1.377349e+003,5.940720e+000
1.378313e+003,6.173218e+000
1.379278e+003,5.154129e+000
1.380242e+003,4.281998e+000
1.381206e+003,4.565781e+000
1.382170e+003,5.244797e+000
1.383135e+003,4.793182e+000
1.384099e+003,3.712830e+000
1.385063e+003,3.421570e+000
1.386027e+003,3.955826e+000
1.386992e+003,4.510910e+000
1.387956e+003,4.891342e+000
1.388920e+003,5.244202e+000
1.389884e+003,5.570053e+000
1.390849e+003,5.889999e+000
1.391813e+003,6.427551e+000
1.392777e+003,7.195465e+000
1.393741e+003,7.449707e+000
1.394705e+003,6.964676e+000
1.395670e+003,6.466461e+000
1.396634e+003,6.329071e+000
1.397598e+003,6.368912e+000
1.398562e+003,6.396164e+000
1.399527e+003,6.427719e+000
1.400491e+003,6.291504e+000
1.401455e+003,5.380661e+000
1.402419e+003,3.599442e+000
1.403384e+003,3.273926e+000
1.404348e+003,5.809280e+000
1.405312e+003,7.055832e+000
1.406276e+003,6.367310e+000
1.407240e+003,5.728577e+000
1.408205e+003,6.177307e+000
1.409169e+003,6.927231e+000
1.410133e+003,6.528717e+000
1.411097e+003,4.760315e+000
1.412062e+003,3.126938e+000
1.413026e+003,3.152557e+000
1.413990e+003,4.567596e+000
1.414954e+003,5.948349e+000
1.415919e+003,7.112366e+000
1.416883e+003,8.122925e+000
1.417847e+003,9.125290e+000
1.418811e+003,9.523224e+000
1.419776e+003,8.582306e+000
1.420740e+003,7.224869e+000
1.421704e+003,7.006500e+000
1.422668e+003,7.999359e+000
1.423632e+003,8.596008e+000
1.424597e+003,7.799683e+000
1.425561e+003,7.060333e+000
1.426525e+003,8.684616e+000
1.427489e+003,1.103389e+001
1.428454e+003,1.148343e+001
1.429418e+003,9.980347e+000
1.430382e+003,8.514267e+000
1.431346e+003,8.052750e+000
1.432311e+003,7.817993e+000
1.433275e+003,6.663803e+000
1.434239e+003,4.959000e+000
1.435203e+003,4.878586e+000
1.436167e+003,7.212753e+000
1.437132e+003,8.832489e+000
1.438096e+003,7.927261e+000
1.439060e+003,6.566086e+000
1.440024e+003,6.071716e+000
1.440989e+003,6.309158e+000
1.441953e+003,6.582520e+000
1.442917e+003,6.609955e+000
1.443881e+003,6.785889e+000
1.444846e+003,7.655014e+000
1.445810e+003,9.088089e+000
1.446774e+003,1.006808e+001
1.447738e+003,1.021814e+001
1.448703e+003,1.033658e+001
1.449667e+003,1.090880e+001
1.450631e+003,1.094244e+001
1.451595e+003,9.879776e+000
1.452559e+003,8.622070e+000
1.453524e+003,7.555405e+000
1.454488e+003,6.986313e+000
1.455452e+003,7.766586e+000
1.456416e+003,1.014786e+001
1.457381e+003,1.239297e+001
1.458345e+003,1.230225e+001
1.459309e+003,1.019572e+001
1.460273e+003,8.488419e+000
1.461238e+003,7.293228e+000
1.462202e+003,7.119751e+000
1.463166e+003,8.859528e+000
1.464130e+003,1.061124e+001
1.465094e+003,1.086781e+001
1.466059e+003,1.014201e+001
1.467023e+003,9.524551e+000
1.467987e+003,9.359436e+000
1.468951e+003,9.678513e+000
1.469916e+003,1.064172e+001
1.470880e+003,1.208952e+001
1.471844e+003,1.378340e+001
1.472808e+003,1.505998e+001
1.473773e+003,1.496490e+001
1.474737e+003,1.356485e+001
1.475701e+003,1.216460e+001
1.476665e+003,1.132274e+001
1.477630e+003,1.096155e+001
1.478594e+003,1.090674e+001
1.479558e+003,1.096631e+001
1.480522e+003,1.091068e+001
1.481486e+003,1.077872e+001
1.482451e+003,1.090280e+001
1.483415e+003,1.150171e+001
1.484379e+003,1.230518e+001
1.485343e+003,1.341144e+001
1.486308e+003,1.450046e+001
1.487272e+003,1.475314e+001
1.488236e+003,1.407410e+001
1.489200e+003,1.346588e+001
1.490165e+003,1.363364e+001
1.491129e+003,1.429044e+001
1.492093e+003,1.503021e+001
1.493057e+003,1.597247e+001
1.494021e+003,1.675571e+001
1.494986e+003,1.737717e+001
1.495950e+003,1.793631e+001
1.496914e+003,1.790775e+001
1.497878e+003,1.806577e+001
1.498843e+003,1.939734e+001
1.499807e+003,2.124979e+001
1.500771e+003,2.234229e+001
1.501735e+003,2.234991e+001
1.502700e+003,2.200009e+001
1.503664e+003,2.190826e+001
1.504628e+003,2.202420e+001
1.505592e+003,2.244308e+001
1.506557e+003,2.349619e+001
1.507521e+003,2.439276e+001
1.508485e+003,2.475674e+001
1.509449e+003,2.516092e+001
1.510413e+003,2.594467e+001
1.511378e+003,2.645154e+001
1.512342e+003,2.615216e+001
1.513306e+003,2.534818e+001
1.514270e+003,2.448520e+001
1.515235e+003,2.375439e+001
1.516199e+003,2.342496e+001
1.517163e+003,2.386636e+001
1.518127e+003,2.466406e+001
1.519092e+003,2.418619e+001
1.520056e+003,2.169156e+001
1.521020e+003,2.050977e+001
1.521984e+003,2.139371e+001
1.522948e+003,2.233896e+001
1.523913e+003,2.364850e+001
1.524877e+003,2.440500e+001
1.525841e+003,2.273428e+001
1.526805e+003,1.982343e+001
1.527770e+003,1.913492e+001
1.528734e+003,2.149890e+001
1.529698e+003,2.361868e+001
1.530662e+003,2.272339e+001
1.531627e+003,1.988089e+001
1.532591e+003,1.737418e+001
1.533555e+003,1.518756e+001
1.534519e+003,1.422897e+001
1.535484e+003,1.548404e+001
1.536448e+003,1.656302e+001
1.537412e+003,1.657193e+001
1.538376e+003,1.587051e+001
1.539340e+003,1.466092e+001
1.540305e+003,1.325290e+001
1.541269e+003,1.214282e+001
1.542233e+003,1.136835e+001
1.543197e+003,1.072836e+001
1.544162e+003,1.021017e+001
1.545126e+003,9.686279e+000
1.546090e+003,8.969269e+000
1.547054e+003,8.460175e+000
1.548019e+003,8.506317e+000
1.548983e+003,8.772125e+000
1.549947e+003,9.026703e+000
1.550911e+003,9.211365e+000
1.551875e+003,9.506470e+000
1.552840e+003,1.051846e+001
1.553804e+003,1.209207e+001
1.554768e+003,1.292496e+001
1.555732e+003,1.249353e+001
1.556697e+003,1.194070e+001
1.557661e+003,1.216644e+001
1.558625e+003,1.253879e+001
1.559589e+003,1.218933e+001
1.560554e+003,1.128323e+001
1.561518e+003,9.792114e+000
1.562482e+003,7.526733e+000
1.563446e+003,6.354645e+000
1.564411e+003,8.248566e+000
1.565375e+003,1.094781e+001
1.566339e+003,1.152411e+001
1.567303e+003,1.053220e+001
1.568267e+003,1.017349e+001
1.569232e+003,1.079745e+001
1.570196e+003,1.138992e+001
1.571160e+003,1.172214e+001
1.572124e+003,1.144952e+001
1.573089e+003,9.697205e+000
1.574053e+003,7.605011e+000
1.575017e+003,6.899200e+000
1.575981e+003,7.575989e+000
1.576946e+003,8.451416e+000
1.577910e+003,8.904022e+000
1.578874e+003,9.170135e+000
1.579838e+003,1.013492e+001
1.580802e+003,1.153870e+001
1.581767e+003,1.142627e+001
1.582731e+003,9.288452e+000
1.583695e+003,7.860962e+000
1.584659e+003,8.452576e+000
1.585624e+003,9.111816e+000
1.586588e+003,8.474976e+000
1.587552e+003,7.532959e+000
1.588516e+003,6.972260e+000
1.589481e+003,6.774445e+000
1.590445e+003,6.834198e+000
1.591409e+003,7.029938e+000
1.592373e+003,7.514313e+000
1.593338e+003,9.142426e+000
1.594302e+003,1.113257e+001
1.595266e+003,1.096017e+001
1.596230e+003,8.658539e+000
1.597194e+003,7.142975e+000
1.598159e+003,7.028961e+000
1.599123e+003,7.187347e+000
1.600087e+003,7.001801e+000
1.601051e+003,6.990540e+000
1.602016e+003,7.784393e+000
1.602980e+003,8.905914e+000
1.603944e+003,9.528015e+000
1.604908e+003,9.610382e+000
1.605873e+003,9.522766e+000
1.606837e+003,9.488037e+000
1.607801e+003,9.371613e+000
1.608765e+003,8.468658e+000
1.609729e+003,6.815247e+000
1.610694e+003,6.484375e+000
1.611658e+003,8.141510e+000
1.612622e+003,9.505554e+000
1.613586e+003,9.907684e+000
1.614551e+003,9.887604e+000
1.615515e+003,8.992462e+000
1.616479e+003,7.976959e+000
1.617443e+003,8.316010e+000
1.618408e+003,9.887115e+000
1.619372e+003,1.114636e+001
1.620336e+003,1.148251e+001
1.621300e+003,1.137726e+001
1.622265e+003,1.115616e+001
1.623229e+003,1.079578e+001
1.624193e+003,1.016006e+001
1.625157e+003,9.174316e+000
1.626121e+003,9.106598e+000
1.627086e+003,1.081320e+001
1.628050e+003,1.218268e+001
1.629014e+003,1.137744e+001
1.629978e+003,9.946533e+000
1.630943e+003,9.410187e+000
1.631907e+003,9.515137e+000
1.632871e+003,9.496796e+000
1.633835e+003,9.280182e+000
1.634800e+003,9.324493e+000
1.635764e+003,1.013217e+001
1.636728e+003,1.111432e+001
1.637692e+003,1.098419e+001
1.638656e+003,9.898193e+000
1.639621e+003,9.639954e+000
1.640585e+003,1.052429e+001
1.641549e+003,1.106531e+001
1.642513e+003,1.072409e+001
1.643478e+003,1.059271e+001
1.644442e+003,1.202838e+001
1.645406e+003,1.359845e+001
1.646370e+003,1.289322e+001
1.647335e+003,1.025946e+001
1.648299e+003,8.873444e+000
1.649263e+003,1.014023e+001
1.650227e+003,1.181421e+001
1.651192e+003,1.188647e+001
1.652156e+003,1.123972e+001
1.653120e+003,1.160312e+001
1.654084e+003,1.287711e+001
1.655048e+003,1.380093e+001
1.656013e+003,1.407849e+001
1.656977e+003,1.396194e+001
1.657941e+003,1.315503e+001
1.658905e+003,1.228531e+001
1.659870e+003,1.249527e+001
1.660834e+003,1.357581e+001
1.661798e+003,1.493250e+001
1.662762e+003,1.642056e+001
1.663727e+003,1.718747e+001
1.664691e+003,1.676810e+001
1.665655e+003,1.569553e+001
1.666619e+003,1.365454e+001
1.667583e+003,1.173581e+001
1.668548e+003,1.247482e+001
1.669512e+003,1.548193e+001
1.670476e+003,1.722949e+001
1.671440e+003,1.666327e+001
1.672405e+003,1.574338e+001
1.673369e+003,1.566193e+001
1.674333e+003,1.610806e+001
1.675297e+003,1.672571e+001
1.676262e+003,1.746533e+001
1.677226e+003,1.817032e+001
1.678190e+003,1.891467e+001
1.679154e+003,1.933484e+001
1.680119e+003,1.932095e+001
1.681083e+003,1.886258e+001
1.682047e+003,1.749387e+001
1.683011e+003,1.597592e+001
1.683975e+003,1.574606e+001
1.684940e+003,1.688477e+001
1.685904e+003,1.858609e+001
1.686868e+003,2.049701e+001
1.687832e+003,2.173206e+001
1.688797e+003,2.114822e+001
1.689761e+003,1.934711e+001
1.690725e+003,1.855307e+001
1.691689e+003,1.911633e+001
1.692654e+003,1.926144e+001
1.693618e+003,1.869418e+001
1.694582e+003,1.862158e+001
1.695546e+003,1.914935e+001
1.696510e+003,1.980344e+001
1.697475e+003,2.066476e+001
1.698439e+003,2.160120e+001
1.699403e+003,2.223892e+001
1.700367e+003,2.262405e+001
1.701332e+003,2.314612e+001
1.702296e+003,2.396918e+001
1.703260e+003,2.486810e+001
1.704224e+003,2.554645e+001
1.705189e+003,2.598624e+001
1.706153e+003,2.659412e+001
1.707117e+003,2.758893e+001
1.708081e+003,2.740909e+001
1.709046e+003,2.512274e+001
1.710010e+003,2.437567e+001
1.710974e+003,2.643054e+001
1.711938e+003,2.859903e+001
1.712902e+003,2.934647e+001
1.713867e+003,2.899738e+001
1.714831e+003,2.812692e+001
1.715795e+003,2.726611e+001
1.716759e+003,2.694678e+001
1.717724e+003,2.733389e+001
1.718688e+003,2.816818e+001
1.719652e+003,2.922147e+001
1.720616e+003,3.022446e+001
1.721581e+003,3.030063e+001
1.722545e+003,2.922256e+001
1.723509e+003,2.881769e+001
1.724473e+003,2.940475e+001
1.725438e+003,3.035837e+001
1.726402e+003,3.202521e+001
1.727366e+003,3.316296e+001
1.728330e+003,3.296689e+001
1.729294e+003,3.209637e+001
1.730259e+003,3.128708e+001
1.731223e+003,3.066473e+001
1.732187e+003,3.000119e+001
1.733151e+003,2.910657e+001
1.734116e+003,2.844299e+001
1.735080e+003,2.894534e+001
1.736044e+003,3.007648e+001
1.737008e+003,2.989169e+001
1.737973e+003,2.845660e+001
1.738937e+003,2.827914e+001
1.739901e+003,2.997366e+001
1.740865e+003,3.128708e+001
1.741829e+003,3.144617e+001
1.742794e+003,3.086868e+001
1.743758e+003,2.917749e+001
1.744722e+003,2.738199e+001
1.745686e+003,2.731622e+001
1.746651e+003,2.873862e+001
1.747615e+003,2.933237e+001
1.748579e+003,2.806226e+001
1.749543e+003,2.714874e+001
1.750508e+003,2.869958e+001
1.751472e+003,3.071265e+001
1.752436e+003,3.071432e+001
1.753400e+003,2.928342e+001
1.754365e+003,2.796576e+001
1.755329e+003,2.709058e+001
1.756293e+003,2.659897e+001
1.757257e+003,2.647821e+001
1.758221e+003,2.677051e+001
1.759186e+003,2.764609e+001
1.760150e+003,2.894504e+001
1.761114e+003,2.985019e+001
1.762078e+003,3.001245e+001
1.763043e+003,2.992734e+001
1.764007e+003,2.936591e+001
1.764971e+003,2.873697e+001
1.765935e+003,2.861136e+001
1.766900e+003,2.862097e+001
1.767864e+003,2.826953e+001
1.768828e+003,2.787820e+001
1.769792e+003,2.808344e+001
1.770756e+003,2.862753e+001
1.771721e+003,2.848325e+001
1.772685e+003,2.727695e+001
1.773649e+003,2.586328e+001
1.774613e+003,2.514914e+001
1.775578e+003,2.512299e+001
1.776542e+003,2.542993e+001
1.777506e+003,2.599298e+001
1.778470e+003,2.631552e+001
1.779435e+003,2.637094e+001
1.780399e+003,2.587930e+001
1.781363e+003,2.427368e+001
1.782327e+003,2.340894e+001
1.783292e+003,2.431570e+001
1.784256e+003,2.530441e+001
1.785220e+003,2.520319e+001
1.786184e+003,2.453629e+001
1.787148e+003,2.402695e+001
1.788113e+003,2.376782e+001
1.789077e+003,2.392120e+001
1.790041e+003,2.478235e+001
1.791005e+003,2.516556e+001
1.791970e+003,2.323486e+001
1.792934e+003,2.049026e+001
1.793898e+003,2.006848e+001
1.794862e+003,2.167523e+001
1.795827e+003,2.345416e+001
1.796791e+003,2.505450e+001
1.797755e+003,2.567010e+001
1.798719e+003,2.478214e+001
1.799683e+003,2.336520e+001
1.800648e+003,2.220404e+001
1.801612e+003,2.122278e+001
1.802576e+003,2.044315e+001
1.803540e+003,1.978976e+001
1.804505e+003,1.962119e+001
1.805469e+003,2.101572e+001
1.806433e+003,2.207596e+001
1.807397e+003,2.154858e+001
1.808362e+003,2.078918e+001
1.809326e+003,2.057022e+001
1.810290e+003,2.086896e+001
1.811254e+003,2.191220e+001
1.812219e+003,2.335028e+001
1.813183e+003,2.443756e+001
1.814147e+003,2.465121e+001
1.815111e+003,2.322733e+001
1.816075e+003,1.968121e+001
1.817040e+003,1.594110e+001
1.818004e+003,1.554587e+001
1.818968e+003,1.834085e+001
1.819932e+003,2.105331e+001
1.820897e+003,2.358966e+001
1.821861e+003,2.471921e+001
1.822825e+003,2.385089e+001
1.823789e+003,2.261804e+001
1.824754e+003,2.201096e+001
1.825718e+003,2.149820e+001
1.826682e+003,1.965530e+001
1.827646e+003,1.757751e+001
1.828610e+003,1.754709e+001
1.829575e+003,1.960059e+001
1.830539e+003,2.187946e+001
1.831503e+003,2.378799e+001
1.832467e+003,2.500107e+001
1.833432e+003,2.499615e+001
1.834396e+003,2.425726e+001
1.835360e+003,2.357828e+001
1.836324e+003,2.308499e+001
1.837289e+003,2.223697e+001
1.838253e+003,2.085849e+001
1.839217e+003,2.021100e+001
1.840181e+003,2.092560e+001
1.841146e+003,2.193561e+001
1.842110e+003,2.248724e+001
1.843074e+003,2.280539e+001
1.844038e+003,2.297665e+001
1.845002e+003,2.295874e+001
1.845967e+003,2.356186e+001
1.846931e+003,2.596399e+001
1.847895e+003,2.684955e+001
1.848859e+003,2.397653e+001
1.849824e+003,2.183408e+001
1.850788e+003,2.325702e+001
1.851752e+003,2.501251e+001
1.852716e+003,2.464548e+001
1.853681e+003,2.319537e+001
1.854645e+003,2.179208e+001
1.855609e+003,2.085379e+001
1.856573e+003,2.108652e+001
1.857537e+003,2.265631e+001
1.858502e+003,2.421582e+001
1.859466e+003,2.468195e+001
1.860430e+003,2.481323e+001
1.861394e+003,2.586984e+001
1.862359e+003,2.735806e+001
1.863323e+003,2.699692e+001
1.864287e+003,2.452747e+001
1.865251e+003,2.243680e+001
1.866216e+003,2.151169e+001
1.867180e+003,2.185165e+001
1.868144e+003,2.374173e+001
1.869108e+003,2.582346e+001
1.870073e+003,2.676358e+001
1.871037e+003,2.668848e+001
1.872001e+003,2.556293e+001
1.872965e+003,2.320609e+001
1.873929e+003,2.160840e+001
1.874894e+003,2.082477e+001
1.875858e+003,2.056494e+001
1.876822e+003,2.103613e+001
1.877786e+003,2.206287e+001
1.878751e+003,2.418610e+001
1.879715e+003,2.633670e+001
1.880679e+003,2.682922e+001
1.881643e+003,2.591220e+001
1.882608e+003,2.495139e+001
1.883572e+003,2.448083e+001
1.884536e+003,2.421750e+001
1.885500e+003,2.389026e+001
1.886464e+003,2.345694e+001
1.887429e+003,2.308408e+001
1.888393e+003,2.292728e+001
1.889357e+003,2.263913e+001
1.890321e+003,2.208307e+001
1.891286e+003,2.227954e+001
1.892250e+003,2.343982e+001
1.893214e+003,2.460504e+001
1.894178e+003,2.611600e+001
1.895143e+003,2.680060e+001
1.896107e+003,2.416223e+001
1.897071e+003,2.059943e+001
1.898035e+003,2.163641e+001
1.899000e+003,2.625870e+001
1.899964e+003,2.822592e+001
1.900928e+003,2.688419e+001
1.901892e+003,2.575623e+001
1.902856e+003,2.524866e+001
1.903821e+003,2.487225e+001
1.904785e+003,2.416702e+001
1.905749e+003,2.338287e+001
1.906713e+003,2.328888e+001
1.907678e+003,2.367630e+001
1.908642e+003,2.365350e+001
1.909606e+003,2.312415e+001
1.910570e+003,2.269940e+001
1.911535e+003,2.276749e+001
1.912499e+003,2.360199e+001
1.913463e+003,2.551706e+001
1.914427e+003,2.728467e+001
1.915391e+003,2.632889e+001
1.916356e+003,2.331534e+001
1.917320e+003,2.169019e+001
1.918284e+003,2.163821e+001
1.919248e+003,2.224316e+001
1.920213e+003,2.309314e+001
1.921177e+003,2.387366e+001
1.922141e+003,2.483554e+001
1.923105e+003,2.541055e+001
1.924070e+003,2.459631e+001
1.925034e+003,2.303961e+001
1.925998e+003,2.271219e+001
1.926962e+003,2.364957e+001
1.927927e+003,2.398334e+001
1.928891e+003,2.371463e+001
1.929855e+003,2.286044e+001
1.930819e+003,2.091119e+001
1.931783e+003,1.880432e+001
1.932748e+003,1.577164e+001
1.933712e+003,1.413699e+001
1.934676e+003,1.743466e+001
1.935640e+003,2.287527e+001
1.936605e+003,2.521921e+001
1.937569e+003,2.408444e+001
1.938533e+003,2.325504e+001
1.939497e+003,2.470090e+001
1.940462e+003,2.579108e+001
1.941426e+003,2.319089e+001
1.942390e+003,1.926663e+001
1.943354e+003,1.848050e+001
1.944318e+003,1.975677e+001
1.945283e+003,1.997681e+001
1.946247e+003,1.942490e+001
1.947211e+003,1.985385e+001
1.948175e+003,2.168008e+001
1.949140e+003,2.244113e+001
1.950104e+003,2.034534e+001
1.951068e+003,1.782855e+001
1.952032e+003,1.794659e+001
1.952997e+003,1.981635e+001
1.953961e+003,2.053787e+001
1.954925e+003,1.997424e+001
1.955889e+003,1.951794e+001
1.956854e+003,1.923502e+001
1.957818e+003,1.907480e+001
1.958782e+003,1.916705e+001
1.959746e+003,1.947000e+001
1.960710e+003,1.941440e+001
1.961675e+003,1.939822e+001
1.962639e+003,2.053171e+001
1.963603e+003,2.189236e+001
1.964567e+003,2.171362e+001
1.965532e+003,2.019431e+001
1.966496e+003,1.906342e+001
1.967460e+003,1.883636e+001
1.968424e+003,1.875812e+001
1.969389e+003,1.836487e+001
1.970353e+003,1.801913e+001
1.971317e+003,1.832382e+001
1.972281e+003,1.868079e+001
1.973245e+003,1.794342e+001
1.974210e+003,1.684167e+001
1.975174e+003,1.713123e+001
1.976138e+003,1.871222e+001
1.977102e+003,2.004401e+001
1.978067e+003,2.038837e+001
1.979031e+003,1.993607e+001
1.979995e+003,1.891266e+001
1.980959e+003,1.772766e+001
1.981924e+003,1.714389e+001
1.982888e+003,1.717923e+001
1.983852e+003,1.725687e+001
1.984816e+003,1.725797e+001
1.985781e+003,1.723160e+001
1.986745e+003,1.745557e+001
1.987709e+003,1.730786e+001
1.988673e+003,1.604901e+001
1.989637e+003,1.500156e+001
1.990602e+003,1.505499e+001
1.991566e+003,1.589368e+001
1.992530e+003,1.761914e+001
1.993494e+003,2.022043e+001
1.994459e+003,2.216663e+001
1.995423e+003,2.336642e+001
1.996387e+003,2.334750e+001
1.997351e+003,2.066412e+001
1.998316e+003,1.867093e+001
1.999280e+003,1.854309e+001
2.000244e+003,1.906857e+001
2.001208e+003,1.984470e+001
2.002172e+003,2.068506e+001
2.003137e+003,2.157617e+001
2.004101e+003,2.212802e+001
2.005065e+003,2.164539e+001
2.006029e+003,2.034738e+001
2.006994e+003,1.958203e+001
2.007958e+003,1.979300e+001
2.008922e+003,2.002573e+001
2.009886e+003,1.977975e+001
2.010851e+003,1.974643e+001
2.011815e+003,2.061310e+001
2.012779e+003,2.166522e+001
2.013743e+003,2.181827e+001
2.014708e+003,2.130096e+001
2.015672e+003,2.112097e+001
2.016636e+003,2.138843e+001
2.017600e+003,2.104663e+001
2.018564e+003,1.966812e+001
2.019529e+003,1.869565e+001
2.020493e+003,1.963336e+001
2.021457e+003,2.161838e+001
2.022421e+003,2.296942e+001
2.023386e+003,2.348804e+001
2.024350e+003,2.230035e+001
2.025314e+003,1.951849e+001
2.026278e+003,1.838852e+001
2.027243e+003,1.948605e+001
2.028207e+003,2.073929e+001
2.029171e+003,2.141379e+001
2.030135e+003,2.190115e+001
2.031099e+003,2.255112e+001
2.032064e+003,2.289935e+001
2.033028e+003,2.204218e+001
2.033992e+003,2.018622e+001
2.034956e+003,1.971698e+001
2.035921e+003,2.174173e+001
2.036885e+003,2.263095e+001
2.037849e+003,2.123145e+001
2.038813e+003,2.094458e+001
2.039778e+003,2.219852e+001
2.040742e+003,2.301288e+001
2.041706e+003,2.334570e+001
2.042670e+003,2.324930e+001
2.043635e+003,2.218713e+001
2.044599e+003,2.086981e+001
2.045563e+003,2.060837e+001
2.046527e+003,2.137247e+001
2.047491e+003,2.195944e+001
2.048456e+003,2.219724e+001
2.049420e+003,2.247278e+001
2.050384e+003,2.250858e+001
2.051348e+003,2.237323e+001
2.052313e+003,2.241232e+001
2.053277e+003,2.243900e+001
2.054241e+003,2.225845e+001
2.055205e+003,2.214352e+001
2.056170e+003,2.231760e+001
2.057134e+003,2.235684e+001
2.058098e+003,2.156665e+001
2.059062e+003,2.019705e+001
2.060027e+003,1.963687e+001
2.060991e+003,2.061679e+001
2.061955e+003,2.168246e+001
2.062919e+003,2.093179e+001
2.063884e+003,1.993399e+001
2.064848e+003,2.165170e+001
2.065812e+003,2.442679e+001
2.066776e+003,2.464026e+001
2.067740e+003,2.261697e+001
2.068705e+003,2.012131e+001
2.069669e+003,1.801172e+001
2.070633e+003,1.779489e+001
2.071597e+003,1.988806e+001
2.072562e+003,2.177020e+001
2.073526e+003,2.144141e+001
2.074490e+003,2.029071e+001
2.075454e+003,2.000409e+001
2.076418e+003,2.025415e+001
2.077383e+003,2.068445e+001
2.078347e+003,2.099792e+001
2.079311e+003,2.045334e+001
2.080275e+003,1.954092e+001
2.081240e+003,1.938690e+001
2.082204e+003,1.997391e+001
2.083168e+003,2.085449e+001
2.084132e+003,2.179660e+001
2.085096e+003,2.217755e+001
2.086061e+003,2.152338e+001
2.087025e+003,2.023950e+001
2.087989e+003,1.888272e+001
2.088953e+003,1.741754e+001
2.089918e+003,1.692297e+001
2.090882e+003,1.766644e+001
2.091846e+003,1.810648e+001
2.092810e+003,1.806967e+001
2.093775e+003,1.792139e+001
2.094739e+003,1.774036e+001
2.095703e+003,1.721506e+001
2.096667e+003,1.601501e+001
2.097632e+003,1.459055e+001
2.098596e+003,1.358154e+001
2.099560e+003,1.312683e+001
2.100524e+003,1.296838e+001
2.101489e+003,1.264304e+001
2.102453e+003,1.324963e+001
2.103417e+003,1.620740e+001
2.104381e+003,1.813669e+001
2.105345e+003,1.853668e+001
2.106310e+003,1.846402e+001
2.107274e+003,1.777789e+001
2.108238e+003,1.728268e+001
2.109202e+003,1.771118e+001
2.110167e+003,1.831638e+001
2.111131e+003,1.798956e+001
2.112095e+003,1.676590e+001
2.113059e+003,1.550903e+001
2.114023e+003,1.475629e+001
2.114988e+003,1.476147e+001
2.115952e+003,1.528345e+001
2.116916e+003,1.548914e+001
2.117880e+003,1.517166e+001
2.118845e+003,1.483133e+001
2.119809e+003,1.558133e+001
2.120773e+003,1.639969e+001
2.121737e+003,1.518399e+001
2.122702e+003,1.331815e+001
2.123666e+003,1.408154e+001
2.124630e+003,1.664444e+001
2.125594e+003,1.642279e+001
2.126559e+003,1.221780e+001
2.127523e+003,8.737762e+000
2.128487e+003,8.085907e+000
2.129451e+003,8.902802e+000
2.130416e+003,1.107922e+001
2.131380e+003,1.334921e+001
2.132344e+003,1.555875e+001
2.133308e+003,1.674469e+001
2.134272e+003,1.464655e+001
2.135237e+003,1.109735e+001
2.136201e+003,9.977722e+000
2.137165e+003,1.150644e+001
2.138129e+003,1.334064e+001
2.139094e+003,1.464133e+001
2.140058e+003,1.513330e+001
2.141022e+003,1.404559e+001
2.141986e+003,1.260825e+001
2.142950e+003,1.195288e+001
2.143915e+003,1.176056e+001
2.144879e+003,1.180646e+001
2.145843e+003,1.175299e+001
2.146807e+003,1.129434e+001
2.147772e+003,1.069659e+001
2.148736e+003,1.011887e+001
2.149700e+003,9.519684e+000
2.150664e+003,9.015259e+000
2.151629e+003,8.741730e+000
2.152593e+003,8.945282e+000
2.153557e+003,1.006488e+001
2.154521e+003,1.147644e+001
2.155486e+003,1.260992e+001
2.156450e+003,1.300348e+001
2.157414e+003,1.175320e+001
2.158378e+003,9.726929e+000
2.159343e+003,8.236877e+000
2.160307e+003,7.520020e+000
2.161271e+003,7.773102e+000
2.162235e+003,8.751465e+000
2.163199e+003,9.581696e+000
2.164164e+003,9.901276e+000
2.165128e+003,1.007919e+001
2.166092e+003,1.044458e+001
2.167056e+003,1.085672e+001
2.168021e+003,1.107587e+001
2.168985e+003,1.076178e+001
2.169949e+003,9.148346e+000
2.170913e+003,7.131592e+000
2.171877e+003,6.945709e+000
2.172842e+003,8.336975e+000
2.173806e+003,9.315155e+000
2.174770e+003,9.424072e+000
2.175734e+003,9.846313e+000
2.176699e+003,1.100269e+001
2.177663e+003,1.118298e+001
2.178627e+003,8.809174e+000
2.179591e+003,6.097137e+000
2.180556e+003,6.639313e+000
2.181520e+003,8.672119e+000
2.182484e+003,8.285034e+000
2.183448e+003,6.581390e+000
2.184413e+003,6.476898e+000
2.185377e+003,7.682434e+000
2.186341e+003,7.956482e+000
2.187305e+003,6.995697e+000
2.188270e+003,6.456787e+000
2.189234e+003,7.136505e+000
2.190198e+003,8.287811e+000
2.191162e+003,9.106598e+000
2.192126e+003,9.456360e+000
2.193091e+003,9.669128e+000
2.194055e+003,9.518555e+000
2.195019e+003,7.736237e+000
2.195983e+003,5.289795e+000
2.196948e+003,4.949097e+000
2.197912e+003,6.229004e+000
2.198876e+003,6.378906e+000
2.199840e+003,5.164612e+000
2.200804e+003,5.276978e+000
2.201769e+003,7.459534e+000
2.202733e+003,8.325684e+000
2.203697e+003,5.514526e+000
2.204661e+003,2.115417e+000
2.205626e+003,2.262207e+000
2.206590e+003,4.046021e+000
2.207554e+003,2.805206e+000
2.208518e+003,0.000000e+000
2.209483e+003,6.049500e-001
2.210447e+003,3.778107e+000
2.211411e+003,5.401428e+000
2.212375e+003,5.049255e+000
2.213340e+003,4.006073e+000
2.214304e+003,2.980682e+000
2.215268e+003,3.287750e+000
2.216232e+003,5.564270e+000
2.217197e+003,7.540375e+000
2.218161e+003,6.947906e+000
2.219125e+003,4.994507e+000
2.220089e+003,3.143311e+000
2.221053e+003,1.885010e+000
2.222018e+003,2.049896e+000
2.222982e+003,2.941864e+000
2.223946e+003,3.527466e+000
2.224910e+003,3.990234e+000
2.225875e+003,5.060852e+000
2.226839e+003,6.549500e+000
2.227803e+003,6.876953e+000
2.228767e+003,5.285919e+000
2.229731e+003,3.495270e+000
2.230696e+003,3.093781e+000
2.231660e+003,3.236542e+000
2.232624e+003,3.063904e+000
2.233588e+003,2.861267e+000
2.234553e+003,2.365051e+000
2.235517e+003,2.062988e+000
2.236481e+003,3.389709e+000
2.237445e+003,5.523010e+000
2.238410e+003,6.646179e+000
2.239374e+003,6.607635e+000
2.240338e+003,5.715790e+000
2.241302e+003,4.245636e+000
2.242267e+003,3.549866e+000
2.243231e+003,4.664825e+000
2.244195e+003,6.047058e+000
2.245159e+003,6.282135e+000
2.246124e+003,5.617371e+000
2.247088e+003,3.480652e+000
2.248052e+003,1.360138e+000
2.249016e+003,2.151154e+000
2.249980e+003,4.402191e+000
2.250945e+003,5.112427e+000
2.251909e+003,4.454071e+000
2.252873e+003,3.940613e+000
2.253837e+003,3.918793e+000
2.254802e+003,4.412445e+000
2.255766e+003,5.641998e+000
2.256730e+003,6.175018e+000
2.257694e+003,3.658508e+000
2.258658e+003,1.718964e+000
2.259623e+003,4.360046e+000
2.260587e+003,7.629456e+000
2.261551e+003,7.615692e+000
2.262515e+003,6.233658e+000
2.263480e+003,6.145447e+000
2.264444e+003,6.880753e+000
2.265408e+003,6.581573e+000
2.266372e+003,5.215714e+000
2.267337e+003,4.407288e+000
2.268301e+003,4.685349e+000
2.269265e+003,5.304657e+000
2.270229e+003,6.859360e+000
2.271194e+003,8.090500e+000
2.272158e+003,6.436295e+000
2.273122e+003,5.340332e+000
2.274086e+003,8.510284e+000
2.275051e+003,1.170351e+001
2.276015e+003,1.135612e+001
2.276979e+003,9.325699e+000
2.277943e+003,7.411865e+000
2.278907e+003,5.938095e+000
2.279872e+003,5.178345e+000
2.280836e+003,5.021942e+000
2.281800e+003,5.345245e+000
2.282764e+003,6.722748e+000
2.283729e+003,7.691727e+000
2.284693e+003,8.205719e+000
2.285657e+003,8.415909e+000
2.286621e+003,7.220322e+000
2.287585e+003,6.093887e+000
2.288550e+003,6.308792e+000
2.289514e+003,7.027649e+000
2.290478e+003,7.469345e+000
2.291442e+003,7.901474e+000
2.292407e+003,8.756042e+000
2.293371e+003,9.760788e+000
2.294335e+003,1.002559e+001
2.295299e+003,9.201721e+000
2.296264e+003,9.500687e+000
2.297228e+003,1.216768e+001
2.298192e+003,1.328638e+001
2.299156e+003,1.188603e+001
2.300121e+003,1.121019e+001
2.301085e+003,1.215417e+001
2.302049e+003,1.301723e+001
2.303013e+003,1.304054e+001
2.303978e+003,1.264828e+001
2.304942e+003,1.199922e+001
2.305906e+003,1.145192e+001
2.306870e+003,1.210010e+001
2.307834e+003,1.376564e+001
2.308799e+003,1.470009e+001
2.309763e+003,1.497298e+001
2.310727e+003,1.612083e+001
2.311691e+003,1.811366e+001
2.312656e+003,1.831923e+001
2.313620e+003,1.620505e+001
2.314584e+003,1.577966e+001
2.315548e+003,1.861217e+001
2.316512e+003,2.085629e+001
2.317477e+003,1.998798e+001
2.318441e+003,1.863223e+001
2.319405e+003,1.973573e+001
2.320369e+003,2.209599e+001
2.321334e+003,2.291595e+001
2.322298e+003,2.279002e+001
2.323262e+003,2.475293e+001
2.324226e+003,2.867235e+001
2.325191e+003,3.332336e+001
2.326155e+003,3.792645e+001
2.327119e+003,4.109586e+001
2.328083e+003,4.251735e+001
2.329048e+003,4.285503e+001
2.330012e+003,4.257487e+001
2.330976e+003,4.099905e+001
2.331940e+003,3.700046e+001
2.332905e+003,3.378867e+001
2.333869e+003,3.603951e+001
2.334833e+003,3.962947e+001
2.335797e+003,4.066042e+001
2.336761e+003,4.045145e+001
2.337726e+003,3.926773e+001
2.338690e+003,3.803397e+001
2.339654e+003,3.816182e+001
2.340618e+003,3.975592e+001
2.341583e+003,4.317445e+001
2.342547e+003,4.765033e+001
2.343511e+003,4.999052e+001
2.344475e+003,4.912755e+001
2.345439e+003,4.848318e+001
2.346404e+003,4.837320e+001
2.347368e+003,5.009952e+001
2.348332e+003,5.684557e+001
2.349296e+003,6.230072e+001
2.350261e+003,6.275996e+001
2.351225e+003,6.253230e+001
2.352189e+003,6.424809e+001
2.353153e+003,6.629698e+001
2.354118e+003,6.650031e+001
2.355082e+003,6.589357e+001
2.356046e+003,6.705421e+001
2.357010e+003,7.010580e+001
2.357975e+003,7.344482e+001
2.358939e+003,7.740492e+001
2.359903e+003,7.966577e+001
2.360867e+003,7.864511e+001
2.361832e+003,7.932666e+001
2.362796e+003,8.346573e+001
2.363760e+003,8.701501e+001
2.364724e+003,8.859445e+001
2.365688e+003,9.091805e+001
2.366653e+003,9.530890e+001
2.367617e+003,9.938171e+001
2.368581e+003,1.008578e+002
2.369545e+003,1.012105e+002
2.370510e+003,1.033596e+002
2.371474e+003,1.068845e+002
2.372438e+003,1.093702e+002
2.373402e+003,1.110397e+002
2.374366e+003,1.138077e+002
2.375331e+003,1.172919e+002
2.376295e+003,1.188541e+002
2.377259e+003,1.186732e+002
2.378223e+003,1.196073e+002
2.379188e+003,1.221952e+002
2.380152e+003,1.243412e+002
2.381116e+003,1.250321e+002
2.382080e+003,1.249264e+002
2.383045e+003,1.238834e+002
2.384009e+003,1.236540e+002
2.384973e+003,1.268742e+002
2.385937e+003,1.307327e+002
2.386902e+003,1.328969e+002
2.387866e+003,1.345264e+002
2.388830e+003,1.365109e+002
2.389794e+003,1.381844e+002
2.390759e+003,1.387392e+002
2.391723e+003,1.383553e+002
2.392687e+003,1.375625e+002
2.393651e+003,1.368980e+002
2.394615e+003,1.374893e+002
2.395580e+003,1.397080e+002
2.396544e+003,1.412534e+002
2.397508e+003,1.415675e+002
2.398472e+003,1.413967e+002
2.399437e+003,1.408850e+002
2.400401e+003,1.404198e+002
2.401365e+003,1.397303e+002
2.402329e+003,1.392470e+002
2.403293e+003,1.388442e+002
2.404258e+003,1.394955e+002
2.405222e+003,1.428617e+002
2.406186e+003,1.474313e+002
2.407150e+003,1.494572e+002
2.408115e+003,1.492229e+002
2.409079e+003,1.488822e+002
2.410043e+003,1.484339e+002
2.411007e+003,1.485485e+002
2.411972e+003,1.493548e+002
2.412936e+003,1.517627e+002
2.413900e+003,1.552943e+002
2.414864e+003,1.568297e+002
2.415829e+003,1.560439e+002
2.416793e+003,1.559512e+002
2.417757e+003,1.577709e+002
2.418721e+003,1.589887e+002
2.419686e+003,1.574890e+002
2.420650e+003,1.562580e+002
2.421614e+003,1.591789e+002
2.422578e+003,1.628168e+002
2.423542e+003,1.632334e+002
2.424507e+003,1.627119e+002
2.425471e+003,1.642912e+002
2.426435e+003,1.666155e+002
2.427399e+003,1.672049e+002
2.428364e+003,1.663710e+002
2.429328e+003,1.662288e+002
2.430292e+003,1.668261e+002
2.431256e+003,1.652967e+002
2.432220e+003,1.606159e+002
2.433185e+003,1.582135e+002
2.434149e+003,1.602172e+002
2.435113e+003,1.612240e+002
2.436077e+003,1.606420e+002
2.437042e+003,1.602712e+002
2.438006e+003,1.611156e+002
2.438970e+003,1.604928e+002
2.439934e+003,1.564405e+002
2.440899e+003,1.529993e+002
2.441863e+003,1.537634e+002
2.442827e+003,1.559431e+002
2.443791e+003,1.552660e+002
2.444756e+003,1.525270e+002
2.445720e+003,1.504747e+002
2.446684e+003,1.488912e+002
2.447648e+003,1.461171e+002
2.448613e+003,1.428830e+002
2.449577e+003,1.422548e+002
2.450541e+003,1.435900e+002
2.451505e+003,1.438324e+002
2.452469e+003,1.428701e+002
2.453434e+003,1.427054e+002
2.454398e+003,1.432878e+002
2.455362e+003,1.422155e+002
2.456326e+003,1.389915e+002
2.457291e+003,1.356198e+002
2.458255e+003,1.317697e+002
2.459219e+003,1.292576e+002
2.460183e+003,1.296219e+002
2.461147e+003,1.300023e+002
2.462112e+003,1.295067e+002
2.463076e+003,1.290159e+002
2.464040e+003,1.288244e+002
2.465004e+003,1.282889e+002
2.465969e+003,1.273669e+002
2.466933e+003,1.262604e+002
2.467897e+003,1.242623e+002
2.468861e+003,1.213317e+002
2.469826e+003,1.197871e+002
2.470790e+003,1.199799e+002
2.471754e+003,1.191367e+002
2.472718e+003,1.173022e+002
2.473683e+003,1.174193e+002
2.474647e+003,1.192974e+002
2.475611e+003,1.196222e+002
2.476575e+003,1.180540e+002
2.477540e+003,1.171265e+002
2.478504e+003,1.176219e+002
2.479468e+003,1.171469e+002
2.480432e+003,1.140901e+002
2.481396e+003,1.105420e+002
2.482361e+003,1.080385e+002
2.483325e+003,1.075099e+002
2.484289e+003,1.112265e+002
2.485253e+003,1.149467e+002
2.486218e+003,1.141735e+002
2.487182e+003,1.117973e+002
2.488146e+003,1.113843e+002
2.489110e+003,1.117935e+002
2.490074e+003,1.106320e+002
2.491039e+003,1.085667e+002
2.492003e+003,1.073602e+002
2.492967e+003,1.066714e+002
2.493931e+003,1.064252e+002
2.494896e+003,1.074250e+002
2.495860e+003,1.074930e+002
2.496824e+003,1.062128e+002
2.497788e+003,1.059257e+002
2.498753e+003,1.068252e+002
2.499717e+003,1.076615e+002
2.500681e+003,1.082726e+002
2.501645e+003,1.082351e+002
2.502610e+003,1.072180e+002
2.503574e+003,1.061052e+002
2.504538e+003,1.058175e+002
2.505502e+003,1.058717e+002
2.506467e+003,1.051596e+002
2.507431e+003,1.041923e+002
2.508395e+003,1.042923e+002
2.509359e+003,1.048477e+002
2.510323e+003,1.047255e+002
2.511288e+003,1.046068e+002
2.512252e+003,1.058286e+002
2.513216e+003,1.074773e+002
2.514180e+003,1.084830e+002
2.515145e+003,1.084514e+002
2.516109e+003,1.059537e+002
2.517073e+003,1.012499e+002
2.518037e+003,9.982253e+001
2.519001e+003,1.034060e+002
2.519966e+003,1.056037e+002
2.520930e+003,1.059219e+002
2.521894e+003,1.063074e+002
2.522858e+003,1.070660e+002
2.523823e+003,1.072010e+002
2.524787e+003,1.063175e+002
2.525751e+003,1.060336e+002
2.526715e+003,1.071325e+002
2.527680e+003,1.076203e+002
2.528644e+003,1.060295e+002
2.529608e+003,1.042304e+002
2.530572e+003,1.040142e+002
2.531537e+003,1.045891e+002
2.532501e+003,1.060322e+002
2.533465e+003,1.071590e+002
2.534429e+003,1.057945e+002
2.535394e+003,1.040169e+002
2.536358e+003,1.041163e+002
2.537322e+003,1.051376e+002
2.538286e+003,1.061055e+002
2.539250e+003,1.067590e+002
2.540215e+003,1.068323e+002
2.541179e+003,1.062205e+002
2.542143e+003,1.045176e+002
2.543107e+003,1.017160e+002
2.544072e+003,1.010443e+002
2.545036e+003,1.027961e+002
2.546000e+003,1.038788e+002
2.546964e+003,1.040180e+002
2.547928e+003,1.035035e+002
2.548893e+003,1.023679e+002
2.549857e+003,1.020407e+002
2.550821e+003,1.030565e+002
2.551785e+003,1.030377e+002
2.552750e+003,1.005332e+002
2.553714e+003,9.771283e+001
2.554678e+003,9.655574e+001
2.555642e+003,9.640300e+001
2.556607e+003,9.653952e+001
2.557571e+003,9.662440e+001
2.558535e+003,9.677368e+001
2.559499e+003,9.661417e+001
2.560464e+003,9.612503e+001
2.561428e+003,9.559802e+001
2.562392e+003,9.478220e+001
2.563356e+003,9.366208e+001
2.564321e+003,9.238425e+001
2.565285e+003,9.130150e+001
2.566249e+003,9.120932e+001
2.567213e+003,9.183719e+001
2.568177e+003,9.200023e+001
2.569142e+003,9.179605e+001
2.570106e+003,9.012418e+001
2.571070e+003,8.733757e+001
2.572034e+003,8.549252e+001
2.572999e+003,8.481100e+001
2.573963e+003,8.399791e+001
2.574927e+003,8.271027e+001
2.575891e+003,8.266409e+001
2.576855e+003,8.431686e+001
2.577820e+003,8.509081e+001
2.578784e+003,8.392342e+001
2.579748e+003,8.255270e+001
2.580712e+003,8.205894e+001
2.581677e+003,8.119160e+001
2.582641e+003,7.806200e+001
2.583605e+003,7.531047e+001
2.584569e+003,7.475453e+001
2.585534e+003,7.492857e+001
2.586498e+003,7.515341e+001
2.587462e+003,7.563800e+001
2.588426e+003,7.670297e+001
2.589391e+003,7.721945e+001
2.590355e+003,7.506337e+001
2.591319e+003,7.153549e+001
2.592283e+003,7.093776e+001
2.593248e+003,7.198311e+001
2.594212e+003,7.032613e+001
2.595176e+003,6.740985e+001
2.596140e+003,6.683624e+001
2.597104e+003,6.783118e+001
2.598069e+003,6.823071e+001
2.599033e+003,6.782646e+001
2.599997e+003,6.711101e+001
2.600961e+003,6.644434e+001
2.601926e+003,6.665884e+001
2.602890e+003,6.817284e+001
2.603854e+003,6.849724e+001
2.604818e+003,6.664577e+001
2.605782e+003,6.498239e+001
2.606747e+003,6.384677e+001
2.607711e+003,6.302185e+001
2.608675e+003,6.242966e+001
2.609639e+003,6.220955e+001
2.610604e+003,6.244511e+001
2.611568e+003,6.255397e+001
2.612532e+003,6.213489e+001
2.613496e+003,6.177573e+001
2.614461e+003,6.189299e+001
2.615425e+003,6.212704e+001
2.616389e+003,6.248856e+001
2.617353e+003,6.262869e+001
2.618318e+003,6.270741e+001
2.619282e+003,6.218799e+001
2.620246e+003,6.005415e+001
2.621210e+003,5.835931e+001
2.622175e+003,5.861534e+001
2.623139e+003,5.963383e+001
2.624103e+003,6.042612e+001
2.625067e+003,6.053658e+001
2.626031e+003,5.961372e+001
2.626996e+003,5.847458e+001
2.627960e+003,5.780125e+001
2.628924e+003,5.717865e+001
2.629888e+003,5.680493e+001
2.630853e+003,5.658182e+001
2.631817e+003,5.697232e+001
2.632781e+003,5.817947e+001
2.633745e+003,5.882672e+001
2.634709e+003,5.816286e+001
2.635674e+003,5.631512e+001
2.636638e+003,5.384830e+001
2.637602e+003,5.299158e+001
2.638566e+003,5.538174e+001
2.639531e+003,5.692194e+001
2.640495e+003,5.486018e+001
2.641459e+003,5.436963e+001
2.642423e+003,5.667766e+001
2.643388e+003,5.807469e+001
2.644352e+003,5.763730e+001
2.645316e+003,5.662318e+001
2.646280e+003,5.546138e+001
2.647245e+003,5.375256e+001
2.648209e+003,5.173265e+001
2.649173e+003,5.100273e+001
2.650137e+003,5.254752e+001
2.651102e+003,5.463647e+001
2.652066e+003,5.601141e+001
2.653030e+003,5.580287e+001
2.653994e+003,5.354568e+001
2.654958e+003,5.112454e+001
2.655923e+003,4.920529e+001
2.656887e+003,4.823070e+001
2.657851e+003,4.842882e+001
2.658815e+003,4.863438e+001
2.659780e+003,4.792671e+001
2.660744e+003,4.711899e+001
2.661708e+003,4.768855e+001
2.662672e+003,4.911954e+001
2.663636e+003,4.936021e+001
2.664601e+003,4.881387e+001
2.665565e+003,4.891350e+001
2.666529e+003,4.922914e+001
2.667493e+003,4.850945e+001
2.668458e+003,4.747488e+001
2.669422e+003,4.778207e+001
2.670386e+003,4.847632e+001
2.671350e+003,4.750279e+001
2.672315e+003,4.543205e+001
2.673279e+003,4.439339e+001
2.674243e+003,4.416425e+001
2.675207e+003,4.382788e+001
2.676172e+003,4.335629e+001
2.677136e+003,4.387300e+001
2.678100e+003,4.566260e+001
2.679064e+003,4.582538e+001
2.680029e+003,4.378938e+001
2.680993e+003,4.123543e+001
2.681957e+003,3.922786e+001
2.682921e+003,3.924173e+001
2.683885e+003,4.126810e+001
2.684850e+003,4.244034e+001
2.685814e+003,4.183934e+001
2.686778e+003,4.124707e+001
2.687742e+003,4.066495e+001
2.688707e+003,4.058116e+001
2.689671e+003,4.120660e+001
2.690635e+003,4.083018e+001
2.691599e+003,3.922723e+001
2.692563e+003,3.762233e+001
2.693528e+003,3.649706e+001
2.694492e+003,3.622951e+001
2.695456e+003,3.704884e+001
2.696420e+003,3.769926e+001
2.697385e+003,3.686472e+001
2.698349e+003,3.541866e+001
2.699313e+003,3.428673e+001
2.700277e+003,3.351126e+001
2.701242e+003,3.245631e+001
2.702206e+003,3.165851e+001
2.703170e+003,3.241299e+001
2.704134e+003,3.332027e+001
2.705099e+003,3.344356e+001
2.706063e+003,3.296420e+001
2.707027e+003,3.153780e+001
2.707991e+003,2.994112e+001
2.708956e+003,2.972708e+001
2.709920e+003,3.010396e+001
2.710884e+003,2.927968e+001
2.711848e+003,2.819510e+001
2.712813e+003,2.921805e+001
2.713777e+003,3.119307e+001
2.714741e+003,3.107027e+001
2.715705e+003,2.931613e+001
2.716669e+003,2.847485e+001
2.717634e+003,2.854781e+001
2.718598e+003,2.784659e+001
2.719562e+003,2.689954e+001
2.720526e+003,2.745059e+001
2.721490e+003,2.847401e+001
2.722455e+003,2.719023e+001
2.723419e+003,2.416341e+001
2.724383e+003,2.367720e+001
2.725347e+003,2.536510e+001
2.726312e+003,2.535347e+001
2.727276e+003,2.351672e+001
2.728240e+003,2.308316e+001
2.729204e+003,2.467651e+001
2.730169e+003,2.562785e+001
2.731133e+003,2.470348e+001
2.732097e+003,2.393456e+001
2.733061e+003,2.438487e+001
2.734026e+003,2.337503e+001
2.734990e+003,2.064153e+001
2.735954e+003,2.041885e+001
2.736918e+003,2.276106e+001
2.737883e+003,2.343576e+001
2.738847e+003,2.152658e+001
2.739811e+003,1.968262e+001
2.740775e+003,1.887331e+001
2.741740e+003,1.793019e+001
2.742704e+003,1.671031e+001
2.743668e+003,1.684605e+001
2.744632e+003,1.925922e+001
2.745596e+003,2.108292e+001
2.746561e+003,1.989124e+001
2.747525e+003,1.835741e+001
2.748489e+003,1.837843e+001
2.749453e+003,1.796835e+001
2.750417e+003,1.650313e+001
2.751382e+003,1.593803e+001
2.752346e+003,1.686391e+001
2.753310e+003,1.787189e+001
2.754274e+003,1.800418e+001
2.755239e+003,1.746295e+001
2.756203e+003,1.648863e+001
2.757167e+003,1.538663e+001
2.758131e+003,1.392361e+001
2.759096e+003,1.289967e+001
2.760060e+003,1.337366e+001
2.761024e+003,1.406464e+001
2.761988e+003,1.423790e+001
2.762953e+003,1.418063e+001
2.763917e+003,1.386308e+001
2.764881e+003,1.386198e+001
2.765845e+003,1.476027e+001
2.766810e+003,1.592366e+001
2.767774e+003,1.686299e+001
2.768738e+003,1.734294e+001
2.769702e+003,1.619041e+001
2.770667e+003,1.477275e+001
2.771631e+003,1.373073e+001
2.772595e+003,1.290311e+001
2.773559e+003,1.341975e+001
2.774523e+003,1.457713e+001
2.775488e+003,1.583514e+001
2.776452e+003,1.709526e+001
2.777416e+003,1.687416e+001
2.778380e+003,1.492447e+001
2.779344e+003,1.455769e+001
2.780309e+003,1.594571e+001
2.781273e+003,1.564514e+001
2.782237e+003,1.497716e+001
2.783201e+003,1.444112e+001
2.784166e+003,1.313876e+001
2.785130e+003,1.252222e+001
2.786094e+003,1.244347e+001
2.787058e+003,1.177220e+001
2.788023e+003,1.127402e+001
2.788987e+003,1.181770e+001
2.789951e+003,1.282619e+001
2.790915e+003,1.383327e+001
2.791880e+003,1.487723e+001
2.792844e+003,1.561111e+001
2.793808e+003,1.606461e+001
2.794772e+003,1.502873e+001
2.795737e+003,1.288103e+001
2.796701e+003,1.233842e+001
2.797665e+003,1.284993e+001
2.798629e+003,1.186856e+001
2.799594e+003,1.014644e+001
2.800558e+003,1.002396e+001
2.801522e+003,1.109782e+001
2.802486e+003,1.167294e+001
2.803450e+003,1.128722e+001
2.804415e+003,1.250385e+001
2.805379e+003,1.484386e+001
2.806343e+003,1.343105e+001
2.807307e+003,1.065706e+001
2.808271e+003,1.036786e+001
2.809236e+003,1.114206e+001
2.810200e+003,1.217819e+001
2.811164e+003,1.341341e+001
2.812128e+003,1.266118e+001
2.813093e+003,9.984970e+000
2.814057e+003,1.049997e+001
2.815021e+003,1.350537e+001
2.815985e+003,1.291040e+001
2.816950e+003,1.016010e+001
2.817914e+003,9.587601e+000
2.818878e+003,1.049982e+001
2.819842e+003,1.130383e+001
2.820807e+003,1.183479e+001
2.821771e+003,1.110109e+001
2.822735e+003,9.046280e+000
2.823699e+003,8.026642e+000
2.824664e+003,9.075546e+000
2.825628e+003,1.019252e+001
2.826592e+003,1.158548e+001
2.827556e+003,1.222453e+001
2.828521e+003,1.145584e+001
2.829485e+003,1.073174e+001
2.830449e+003,1.052080e+001
2.831413e+003,1.006363e+001
2.832377e+003,9.096375e+000
2.833342e+003,8.256897e+000
2.834306e+003,7.944366e+000
2.835270e+003,8.286377e+000
2.836234e+003,9.222107e+000
2.837198e+003,9.138519e+000
2.838163e+003,7.512451e+000
2.839127e+003,7.068665e+000
2.840091e+003,7.911652e+000
2.841055e+003,8.004761e+000
2.842020e+003,7.103210e+000
2.842984e+003,6.403732e+000
2.843948e+003,6.432434e+000
2.844912e+003,8.140381e+000
2.845877e+003,1.108611e+001
2.846841e+003,1.170654e+001
2.847805e+003,8.807739e+000
2.848769e+003,7.069504e+000
2.849734e+003,7.106384e+000
2.850698e+003,7.921646e+000
2.851662e+003,9.693710e+000
2.852626e+003,9.393921e+000
2.853591e+003,7.348022e+000
2.854555e+003,7.132355e+000
2.855519e+003,8.622299e+000
2.856483e+003,8.467896e+000
2.857448e+003,6.224335e+000
2.858412e+003,5.312683e+000
2.859376e+003,7.181747e+000
2.860340e+003,8.422073e+000
2.861304e+003,8.240707e+000
2.862269e+003,8.178329e+000
2.863233e+003,7.962784e+000
2.864197e+003,6.675034e+000
2.865161e+003,4.940704e+000
2.866125e+003,3.979675e+000
2.867090e+003,3.660431e+000
2.868054e+003,3.809952e+000
2.869018e+003,4.249817e+000
2.869982e+003,4.402542e+000
2.870947e+003,4.654297e+000
2.871911e+003,5.124130e+000
2.872875e+003,4.857422e+000
2.873839e+003,5.536484e+000
2.874804e+003,7.366058e+000
2.875768e+003,7.935349e+000
2.876732e+003,7.246078e+000
2.877696e+003,6.503922e+000
2.878661e+003,5.958160e+000
2.879625e+003,5.389008e+000
2.880589e+003,4.787720e+000
2.881553e+003,4.775955e+000
2.882518e+003,5.797318e+000
2.883482e+003,5.563766e+000
2.884446e+003,3.453506e+000
2.885410e+003,3.173645e+000
2.886375e+003,4.654266e+000
2.887339e+003,6.206589e+000
2.888303e+003,7.433136e+000
2.889267e+003,7.288818e+000
2.890231e+003,6.186066e+000
2.891196e+003,6.163956e+000
2.892160e+003,7.485764e+000
2.893124e+003,8.535828e+000
2.894088e+003,9.101120e+000
2.895052e+003,8.819611e+000
2.896017e+003,7.534348e+000
2.896981e+003,7.747833e+000
2.897945e+003,9.353638e+000
2.898909e+003,1.177571e+001
2.899874e+003,1.414862e+001
2.900838e+003,1.374297e+001
2.901802e+003,1.138634e+001
2.902766e+003,1.104344e+001
2.903731e+003,1.306184e+001
2.904695e+003,1.420638e+001
2.905659e+003,1.434462e+001
2.906623e+003,1.448875e+001
2.907588e+003,1.464537e+001
2.908552e+003,1.487425e+001
2.909516e+003,1.523146e+001
2.910480e+003,1.602371e+001
2.911445e+003,1.703218e+001
2.912409e+003,1.769304e+001
2.913373e+003,1.807849e+001
2.914337e+003,1.847881e+001
2.915302e+003,1.907765e+001
2.916266e+003,2.073880e+001
2.917230e+003,2.322884e+001
2.918194e+003,2.319223e+001
2.919158e+003,2.154413e+001
2.920123e+003,2.263412e+001
2.921087e+003,2.522591e+001
2.922051e+003,2.653804e+001
2.923015e+003,2.684473e+001
2.923979e+003,2.699730e+001
2.924944e+003,2.719121e+001
2.925908e+003,2.772549e+001
2.926872e+003,2.823730e+001
2.927836e+003,2.723816e+001
2.928801e+003,2.554736e+001
2.929765e+003,2.723732e+001
2.930729e+003,3.061581e+001
2.931693e+003,3.221657e+001
2.932658e+003,3.295769e+001
2.933622e+003,3.486662e+001
2.934586e+003,3.661095e+001
2.935550e+003,3.512915e+001
2.936515e+003,3.300166e+001
2.937479e+003,3.390320e+001
2.938443e+003,3.648903e+001
2.939407e+003,3.768124e+001
2.940372e+003,3.839674e+001
2.941336e+003,4.112228e+001
2.942300e+003,4.395964e+001
2.943264e+003,4.440329e+001
2.944229e+003,4.387834e+001
2.945193e+003,4.374902e+001
2.946157e+003,4.349889e+001
2.947121e+003,4.254262e+001
2.948085e+003,4.145711e+001
2.949050e+003,4.085284e+001
2.950014e+003,4.086893e+001
2.950978e+003,4.219174e+001
2.951942e+003,4.357343e+001
2.952906e+003,4.349870e+001
2.953871e+003,4.304117e+001
2.954835e+003,4.309610e+001
2.955799e+003,4.274925e+001
2.956763e+003,4.122594e+001
2.957728e+003,4.009068e+001
2.958692e+003,4.032043e+001
2.959656e+003,4.153008e+001
2.960620e+003,4.348430e+001
2.961585e+003,4.545026e+001
2.962549e+003,4.732198e+001
2.963513e+003,4.804539e+001
2.964477e+003,4.559021e+001
2.965442e+003,4.435426e+001
2.966406e+003,4.592426e+001
2.967370e+003,4.767903e+001
2.968334e+003,4.875168e+001
2.969299e+003,4.922266e+001
2.970263e+003,4.914705e+001
2.971227e+003,4.857004e+001
2.972191e+003,4.729730e+001
2.973156e+003,4.704880e+001
2.974120e+003,5.011819e+001
2.975084e+003,5.143115e+001
2.976048e+003,4.989908e+001
2.977012e+003,4.867807e+001
2.977977e+003,4.826208e+001
2.978941e+003,4.946811e+001
2.979905e+003,5.209854e+001
2.980869e+003,5.361378e+001
2.981833e+003,5.341092e+001
2.982798e+003,5.458742e+001
2.983762e+003,5.881453e+001
2.984726e+003,6.009122e+001
2.985690e+003,5.735622e+001
2.986655e+003,5.556702e+001
2.987619e+003,5.487746e+001
2.988583e+003,5.545706e+001
2.989547e+003,5.678406e+001
2.990512e+003,5.670930e+001
2.991476e+003,5.570766e+001
2.992440e+003,5.697827e+001
2.993404e+003,6.045313e+001
2.994369e+003,6.138283e+001
2.995333e+003,5.979460e+001
2.996297e+003,5.851050e+001
2.997261e+003,5.751575e+001
2.998226e+003,5.661356e+001
2.999190e+003,5.603455e+001
3.000154e+003,5.627722e+001
3.001118e+003,5.725198e+001
3.002083e+003,5.932469e+001
3.003047e+003,6.147923e+001
3.004011e+003,6.174495e+001
3.004975e+003,6.090031e+001
3.005939e+003,6.069766e+001
3.006904e+003,6.102541e+001
3.007868e+003,6.177811e+001
3.008832e+003,6.263289e+001
3.009796e+003,6.278540e+001
3.010760e+003,6.315919e+001
3.011725e+003,6.579065e+001
3.012689e+003,6.762706e+001
3.013653e+003,6.587254e+001
3.014617e+003,6.345752e+001
3.015582e+003,6.329349e+001
3.016546e+003,6.431021e+001
3.017510e+003,6.546294e+001
3.018474e+003,6.646368e+001
3.019439e+003,6.707875e+001
3.020403e+003,6.739149e+001
3.021367e+003,6.707640e+001
3.022331e+003,6.714594e+001
3.023296e+003,6.800427e+001
3.024260e+003,6.859354e+001
3.025224e+003,6.843785e+001
3.026188e+003,6.881406e+001
3.027153e+003,7.058240e+001
3.028117e+003,7.186954e+001
3.029081e+003,7.092195e+001
3.030045e+003,7.067607e+001
3.031010e+003,7.159979e+001
3.031974e+003,7.354820e+001
3.032938e+003,7.651511e+001
3.033902e+003,7.733420e+001
3.034866e+003,7.577351e+001
3.035831e+003,7.415948e+001
3.036795e+003,7.340553e+001
3.037759e+003,7.438452e+001
3.038723e+003,7.753116e+001
3.039688e+003,7.913872e+001
3.040652e+003,7.885692e+001
3.041616e+003,7.882031e+001
3.042580e+003,7.907869e+001
3.043544e+003,8.001057e+001
3.044509e+003,8.132956e+001
3.045473e+003,8.257652e+001
3.046437e+003,8.339726e+001
3.047401e+003,8.274353e+001
3.048366e+003,8.143593e+001
3.049330e+003,8.189600e+001
3.050294e+003,8.355582e+001
3.051258e+003,8.423839e+001
3.052223e+003,8.447238e+001
3.053187e+003,8.540900e+001
3.054151e+003,8.677522e+001
3.055115e+003,8.868073e+001
3.056080e+003,9.026308e+001
3.057044e+003,9.051433e+001
3.058008e+003,9.058980e+001
3.058972e+003,9.161115e+001
3.059937e+003,9.205780e+001
3.060901e+003,8.948967e+001
3.061865e+003,8.746352e+001
3.062829e+003,9.156729e+001
3.063793e+003,9.510260e+001
3.064758e+003,9.314134e+001
3.065722e+003,9.141869e+001
3.066686e+003,9.151915e+001
3.067650e+003,9.247174e+001
3.068615e+003,9.390356e+001
3.069579e+003,9.658423e+001
3.070543e+003,1.007783e+002
3.071507e+003,1.021145e+002
3.072471e+003,9.679549e+001
3.073436e+003,9.376474e+001
3.074400e+003,9.474228e+001
3.075364e+003,9.604410e+001
3.076328e+003,9.740813e+001
3.077293e+003,9.887122e+001
3.078257e+003,1.001561e+002
3.079221e+003,9.968799e+001
3.080185e+003,9.799055e+001
3.081150e+003,9.828790e+001
3.082114e+003,1.008976e+002
3.083078e+003,1.030753e+002
3.084042e+003,1.047775e+002
3.085007e+003,1.053077e+002
3.085971e+003,1.050397e+002
3.086935e+003,1.049582e+002
3.087899e+003,1.049621e+002
3.088864e+003,1.047333e+002
3.089828e+003,1.044922e+002
3.090792e+003,1.048899e+002
3.091756e+003,1.047255e+002
3.092720e+003,1.019585e+002
3.093685e+003,9.951418e+001
3.094649e+003,1.041950e+002
3.095613e+003,1.094355e+002
3.096577e+003,1.068936e+002
3.097542e+003,1.033733e+002
3.098506e+003,1.030313e+002
3.099470e+003,1.032883e+002
3.100434e+003,1.032531e+002
3.101398e+003,1.037838e+002
3.102363e+003,1.053045e+002
3.103327e+003,1.072678e+002
3.104291e+003,1.094825e+002
3.105255e+003,1.109862e+002
3.106220e+003,1.111825e+002
3.107184e+003,1.106477e+002
3.108148e+003,1.091948e+002
3.109112e+003,1.090579e+002
3.110077e+003,1.102760e+002
3.111041e+003,1.111920e+002
3.112005e+003,1.116399e+002
3.112969e+003,1.125944e+002
3.113934e+003,1.140555e+002
3.114898e+003,1.146769e+002
3.115862e+003,1.144509e+002
3.116826e+003,1.131093e+002
3.117791e+003,1.113957e+002
3.118755e+003,1.140215e+002
3.119719e+003,1.179627e+002
3.120683e+003,1.168841e+002
3.121647e+003,1.141029e+002
3.122612e+003,1.148507e+002
3.123576e+003,1.171406e+002
3.124540e+003,1.189633e+002
3.125504e+003,1.206741e+002
3.126469e+003,1.230989e+002
3.127433e+003,1.247228e+002
3.128397e+003,1.230353e+002
3.129361e+003,1.208805e+002
3.130325e+003,1.193096e+002
3.131290e+003,1.191456e+002
3.132254e+003,1.208540e+002
3.133218e+003,1.218897e+002
3.134182e+003,1.214083e+002
3.135147e+003,1.223800e+002
3.136111e+003,1.262175e+002
3.137075e+003,1.277490e+002
3.138039e+003,1.231396e+002
3.139004e+003,1.214455e+002
3.139968e+003,1.231225e+002
3.140932e+003,1.261172e+002
3.141896e+003,1.296677e+002
3.142861e+003,1.310289e+002
3.143825e+003,1.305678e+002
3.144789e+003,1.300611e+002
3.145753e+003,1.298436e+002
3.146718e+003,1.296261e+002
3.147682e+003,1.297852e+002
3.148646e+003,1.324603e+002
3.149610e+003,1.359700e+002
3.150574e+003,1.347412e+002
3.151539e+003,1.324772e+002
3.152503e+003,1.343415e+002
3.153467e+003,1.366529e+002
3.154431e+003,1.357833e+002
3.155396e+003,1.356324e+002
3.156360e+003,1.389548e+002
3.157324e+003,1.419421e+002
3.158288e+003,1.412556e+002
3.159252e+003,1.395664e+002
3.160217e+003,1.377132e+002
3.161181e+003,1.375441e+002
3.162145e+003,1.401257e+002
3.163109e+003,1.415132e+002
3.164074e+003,1.412753e+002
3.165038e+003,1.426215e+002
3.166002e+003,1.455389e+002
3.166966e+003,1.459586e+002
3.167931e+003,1.433479e+002
3.168895e+003,1.427551e+002
3.169859e+003,1.445097e+002
3.170823e+003,1.463821e+002
3.171788e+003,1.481796e+002
3.172752e+003,1.483835e+002
3.173716e+003,1.478523e+002
3.174680e+003,1.481345e+002
3.175645e+003,1.489113e+002
3.176609e+003,1.496019e+002
3.177573e+003,1.504026e+002
3.178537e+003,1.516763e+002
3.179501e+003,1.524712e+002
3.180466e+003,1.511374e+002
3.181430e+003,1.496616e+002
3.182394e+003,1.500349e+002
3.183358e+003,1.509404e+002
3.184323e+003,1.522476e+002
3.185287e+003,1.527453e+002
3.186251e+003,1.521464e+002
3.187215e+003,1.517242e+002
3.188179e+003,1.519151e+002
3.189144e+003,1.524703e+002
3.190108e+003,1.533001e+002
3.191072e+003,1.534240e+002
3.192036e+003,1.525850e+002
3.193001e+003,1.518398e+002
3.193965e+003,1.513477e+002
3.194929e+003,1.526596e+002
3.195893e+003,1.549796e+002
3.196858e+003,1.569811e+002
3.197822e+003,1.580601e+002
3.198786e+003,1.570280e+002
3.199750e+003,1.553176e+002
3.200715e+003,1.548344e+002
3.201679e+003,1.551719e+002
3.202643e+003,1.560902e+002
3.203607e+003,1.567544e+002
3.204572e+003,1.554274e+002
3.205536e+003,1.550632e+002
3.206500e+003,1.576971e+002
3.207464e+003,1.592713e+002
3.208428e+003,1.585101e+002
3.209393e+003,1.579799e+002
3.210357e+003,1.587889e+002
3.211321e+003,1.600638e+002
3.212285e+003,1.616013e+002
3.213250e+003,1.623811e+002
3.214214e+003,1.621854e+002
3.215178e+003,1.628970e+002
3.216142e+003,1.641345e+002
3.217106e+003,1.635277e+002
3.218071e+003,1.618827e+002
3.219035e+003,1.609639e+002
3.219999e+003,1.612475e+002
3.220963e+003,1.631371e+002
3.221928e+003,1.656673e+002
3.222892e+003,1.672908e+002
3.223856e+003,1.679179e+002
3.224820e+003,1.667890e+002
3.225785e+003,1.654520e+002
3.226749e+003,1.645948e+002
3.227713e+003,1.650648e+002
3.228677e+003,1.673310e+002
3.229642e+003,1.693798e+002
3.230606e+003,1.704514e+002
3.231570e+003,1.717905e+002
3.232534e+003,1.739707e+002
3.233499e+003,1.743568e+002
3.234463e+003,1.708946e+002
3.235427e+003,1.704898e+002
3.236391e+003,1.729713e+002
3.237355e+003,1.735882e+002
3.238320e+003,1.728889e+002
3.239284e+003,1.728012e+002
3.240248e+003,1.737524e+002
3.241212e+003,1.772845e+002
3.242177e+003,1.805484e+002
3.243141e+003,1.789857e+002
3.244105e+003,1.757930e+002
3.245069e+003,1.769191e+002
3.246033e+003,1.796935e+002
3.246998e+003,1.824542e+002
3.247962e+003,1.841164e+002
3.248926e+003,1.839670e+002
3.249890e+003,1.836390e+002
3.250855e+003,1.836319e+002
3.251819e+003,1.840753e+002
3.252783e+003,1.849253e+002
3.253747e+003,1.852133e+002
3.254712e+003,1.844679e+002
3.255676e+003,1.838759e+002
3.256640e+003,1.834219e+002
3.257604e+003,1.854287e+002
3.258569e+003,1.887995e+002
3.259533e+003,1.899632e+002
3.260497e+003,1.897564e+002
3.261461e+003,1.903526e+002
3.262426e+003,1.907342e+002
3.263390e+003,1.891164e+002
3.264354e+003,1.877534e+002
3.265318e+003,1.903256e+002
3.266282e+003,1.934622e+002
3.267247e+003,1.932688e+002
3.268211e+003,1.928918e+002
3.269175e+003,1.935036e+002
3.270139e+003,1.946088e+002
3.271104e+003,1.961060e+002
3.272068e+003,1.981797e+002
3.273032e+003,2.005359e+002
3.273996e+003,2.009417e+002
3.274960e+003,1.989176e+002
3.275925e+003,1.992637e+002
3.276889e+003,2.020418e+002
3.277853e+003,2.028134e+002
3.278817e+003,2.020205e+002
3.279782e+003,1.992091e+002
3.280746e+003,1.972829e+002
3.281710e+003,2.024121e+002
3.282674e+003,2.075869e+002
3.283639e+003,2.065658e+002
3.284603e+003,2.039323e+002
3.285567e+003,2.039289e+002
3.286531e+003,2.048064e+002
3.287496e+003,2.050133e+002
3.288460e+003,2.058236e+002
3.289424e+003,2.079417e+002
3.290388e+003,2.089245e+002
3.291353e+003,2.086725e+002
3.292317e+003,2.098524e+002
3.293281e+003,2.120401e+002
3.294245e+003,2.111766e+002
3.295209e+003,2.076874e+002
3.296174e+003,2.074221e+002
3.297138e+003,2.096294e+002
3.298102e+003,2.115440e+002
3.299066e+003,2.127023e+002
3.300031e+003,2.109997e+002
3.300995e+003,2.095461e+002
3.301959e+003,2.123994e+002
3.302923e+003,2.147654e+002
3.303887e+003,2.145400e+002
3.304852e+003,2.135354e+002
3.305816e+003,2.128216e+002
3.306780e+003,2.132504e+002
3.307744e+003,2.159312e+002
3.308709e+003,2.173017e+002
3.309673e+003,2.168373e+002
3.310637e+003,2.180839e+002
3.311601e+003,2.206345e+002
3.312566e+003,2.221098e+002
3.313530e+003,2.227069e+002
3.314494e+003,2.232690e+002
3.315458e+003,2.241689e+002
3.316423e+003,2.260186e+002
3.317387e+003,2.275983e+002
3.318351e+003,2.260193e+002
3.319315e+003,2.243054e+002
3.320280e+003,2.263152e+002
3.321244e+003,2.279510e+002
3.322208e+003,2.276905e+002
3.323172e+003,2.270099e+002
3.324136e+003,2.263805e+002
3.325101e+003,2.267956e+002
3.326065e+003,2.282473e+002
3.327029e+003,2.280772e+002
3.327993e+003,2.257325e+002
3.328958e+003,2.259659e+002
3.329922e+003,2.284360e+002
3.330886e+003,2.310652e+002
3.331850e+003,2.335593e+002
3.332814e+003,2.356300e+002
3.333779e+003,2.370664e+002
3.334743e+003,2.379176e+002
3.335707e+003,2.372763e+002
3.336671e+003,2.342771e+002
3.337636e+003,2.333414e+002
3.338600e+003,2.393082e+002
3.339564e+003,2.434980e+002
3.340528e+003,2.400725e+002
3.341493e+003,2.395941e+002
3.342457e+003,2.423351e+002
3.343421e+003,2.433564e+002
3.344385e+003,2.429694e+002
3.345350e+003,2.447087e+002
3.346314e+003,2.477518e+002
3.347278e+003,2.488858e+002
3.348242e+003,2.478453e+002
3.349207e+003,2.425284e+002
3.350171e+003,2.377868e+002
3.351135e+003,2.438571e+002
3.352099e+003,2.501781e+002
3.353063e+003,2.483831e+002
3.354028e+003,2.480306e+002
3.354992e+003,2.515184e+002
3.355956e+003,2.533960e+002
3.356920e+003,2.519829e+002
3.357885e+003,2.501926e+002
3.358849e+003,2.489982e+002
3.359813e+003,2.505291e+002
3.360777e+003,2.546402e+002
3.361741e+003,2.584193e+002
3.362706e+003,2.610050e+002
3.363670e+003,2.591893e+002
3.364634e+003,2.566618e+002
3.365598e+003,2.579197e+002
3.366563e+003,2.602218e+002
3.367527e+003,2.617253e+002
3.368491e+003,2.623436e+002
3.369455e+003,2.616949e+002
3.370420e+003,2.615764e+002
3.371384e+003,2.642776e+002
3.372348e+003,2.636294e+002
3.373312e+003,2.596895e+002
3.374277e+003,2.608674e+002
3.375241e+003,2.657708e+002
3.376205e+003,2.677502e+002
3.377169e+003,2.666292e+002
3.378134e+003,2.645390e+002
3.379098e+003,2.627243e+002
3.380062e+003,2.635017e+002
3.381026e+003,2.654945e+002
3.381990e+003,2.679629e+002
3.382955e+003,2.688207e+002
3.383919e+003,2.656053e+002
3.384883e+003,2.651303e+002
3.385847e+003,2.685948e+002
3.386812e+003,2.693350e+002
3.387776e+003,2.661429e+002
3.388740e+003,2.647033e+002
3.389704e+003,2.663212e+002
3.390668e+003,2.677726e+002
3.391633e+003,2.691345e+002
3.392597e+003,2.714857e+002
3.393561e+003,2.734992e+002
3.394525e+003,2.725510e+002
3.395490e+003,2.710180e+002
3.396454e+003,2.703179e+002
3.397418e+003,2.718889e+002
3.398382e+003,2.764539e+002
3.399347e+003,2.782968e+002
3.400311e+003,2.730796e+002
3.401275e+003,2.708789e+002
3.402239e+003,2.742470e+002
3.403204e+003,2.770799e+002
3.404168e+003,2.789899e+002
3.405132e+003,2.778544e+002
3.406096e+003,2.758388e+002
3.407061e+003,2.778535e+002
3.408025e+003,2.813062e+002
3.408989e+003,2.830753e+002
3.409953e+003,2.832140e+002
3.410917e+003,2.809908e+002
3.411882e+003,2.795196e+002
3.412846e+003,2.816056e+002
3.413810e+003,2.843214e+002
3.414774e+003,2.873530e+002
3.415739e+003,2.871088e+002
3.416703e+003,2.841772e+002
3.417667e+003,2.831943e+002
3.418631e+003,2.843452e+002
3.419595e+003,2.848778e+002
3.420560e+003,2.848588e+002
3.421524e+003,2.848123e+002
3.422488e+003,2.845902e+002
3.423452e+003,2.834836e+002
3.424417e+003,2.828211e+002
3.425381e+003,2.833419e+002
3.426345e+003,2.847164e+002
3.427309e+003,2.868344e+002
3.428274e+003,2.894475e+002
3.429238e+003,2.922821e+002
3.430202e+003,2.940973e+002
3.431166e+003,2.945666e+002
3.432131e+003,2.926074e+002
3.433095e+003,2.892768e+002
3.434059e+003,2.897125e+002
3.435023e+003,2.914053e+002
3.435988e+003,2.902151e+002
3.436952e+003,2.899164e+002
3.437916e+003,2.931422e+002
3.438880e+003,2.956450e+002
3.439844e+003,2.949156e+002
3.440809e+003,2.929086e+002
3.441773e+003,2.896583e+002
3.442737e+003,2.901151e+002
3.443701e+003,2.944554e+002
3.444666e+003,2.993041e+002
3.445630e+003,3.033055e+002
3.446594e+003,3.028121e+002
3.447558e+003,2.999260e+002
3.448522e+003,2.972668e+002
3.449487e+003,2.964641e+002
3.450451e+003,2.991436e+002
3.451415e+003,3.034404e+002
3.452379e+003,3.092706e+002
3.453344e+003,3.122016e+002
3.454308e+003,3.102487e+002
3.455272e+003,3.102541e+002
3.456236e+003,3.122623e+002
3.457201e+003,3.128589e+002
3.458165e+003,3.122112e+002
3.459129e+003,3.122643e+002
3.460093e+003,3.128741e+002
3.461058e+003,3.136520e+002
3.462022e+003,3.140175e+002
3.462986e+003,3.122808e+002
3.463950e+003,3.108226e+002
3.464915e+003,3.113046e+002
3.465879e+003,3.124759e+002
3.466843e+003,3.141620e+002
3.467807e+003,3.166593e+002
3.468771e+003,3.198801e+002
3.469736e+003,3.241156e+002
3.470700e+003,3.280266e+002
3.471664e+003,3.255501e+002
3.472628e+003,3.199820e+002
3.473593e+003,3.213686e+002
3.474557e+003,3.258089e+002
3.475521e+003,3.304834e+002
3.476485e+003,3.343152e+002
3.477449e+003,3.371661e+002
3.478414e+003,3.367136e+002
3.479378e+003,3.328370e+002
3.480342e+003,3.314015e+002
3.481306e+003,3.343492e+002
3.482271e+003,3.359469e+002
3.483235e+003,3.362653e+002
3.484199e+003,3.384235e+002
3.485163e+003,3.409359e+002
3.486128e+003,3.412682e+002
3.487092e+003,3.406834e+002
3.488056e+003,3.399757e+002
3.489020e+003,3.404498e+002
3.489985e+003,3.427365e+002
3.490949e+003,3.449602e+002
3.491913e+003,3.461581e+002
3.492877e+003,3.473308e+002
3.493842e+003,3.486410e+002
3.494806e+003,3.455363e+002
3.495770e+003,3.415065e+002
3.496734e+003,3.471490e+002
3.497698e+003,3.549632e+002
3.498663e+003,3.557429e+002
3.499627e+003,3.540920e+002
3.500591e+003,0.000000e+000
