9.987170e+001,5.185644e+002
1.008359e+002,5.205517e+002
1.018002e+002,5.220934e+002
1.027644e+002,5.235693e+002
1.037286e+002,5.239962e+002
1.046929e+002,5.230353e+002
1.056571e+002,5.207020e+002
1.066213e+002,5.172195e+002
1.075856e+002,5.117180e+002
1.085498e+002,5.050172e+002
1.095140e+002,4.978332e+002
1.104783e+002,4.906964e+002
1.114425e+002,4.841678e+002
1.124067e+002,4.826250e+002
1.133710e+002,4.863668e+002
1.143352e+002,4.911890e+002
1.152994e+002,4.935178e+002
1.162637e+002,4.914464e+002
1.172279e+002,4.892367e+002
1.181921e+002,4.876311e+002
1.191564e+002,4.863691e+002
1.201206e+002,4.849634e+002
1.210848e+002,4.829593e+002
1.220491e+002,4.804188e+002
1.230133e+002,4.770165e+002
1.239775e+002,4.730466e+002
1.249418e+002,4.691345e+002
1.259060e+002,4.668190e+002
1.268702e+002,4.653809e+002
1.278345e+002,4.645644e+002
1.287987e+002,4.641829e+002
1.297629e+002,4.640806e+002
1.307272e+002,4.613866e+002
1.316914e+002,4.562791e+002
1.326556e+002,4.517005e+002
1.336199e+002,4.498176e+002
1.345841e+002,4.513450e+002
1.355483e+002,4.531505e+002
1.365126e+002,4.553641e+002
1.374768e+002,4.566743e+002
1.384410e+002,4.558740e+002
1.394053e+002,4.527431e+002
1.403695e+002,4.496245e+002
1.413337e+002,4.463964e+002
1.422980e+002,4.431937e+002
1.432622e+002,4.402017e+002
1.442264e+002,4.375398e+002
1.451907e+002,4.346330e+002
1.461549e+002,4.314554e+002
1.471191e+002,4.282165e+002
1.480834e+002,4.253293e+002
1.490476e+002,4.252484e+002
1.500118e+002,4.288063e+002
1.509761e+002,4.321376e+002
1.519403e+002,4.325048e+002
1.529045e+002,4.278891e+002
1.538688e+002,4.241810e+002
1.548330e+002,4.217143e+002
1.557972e+002,4.192105e+002
1.567615e+002,4.156841e+002
1.577257e+002,4.105560e+002
1.586899e+002,4.069571e+002
1.596542e+002,4.063103e+002
1.606184e+002,4.073092e+002
1.615826e+002,4.080988e+002
1.625469e+002,4.056380e+002
1.635111e+002,4.017111e+002
1.644753e+002,3.993676e+002
1.654396e+002,3.989894e+002
1.664038e+002,4.000305e+002
1.673680e+002,3.999197e+002
1.683323e+002,3.985130e+002
1.692965e+002,3.974045e+002
1.702607e+002,3.975423e+002
1.712250e+002,3.993239e+002
1.721892e+002,3.987846e+002
1.731534e+002,3.943211e+002
1.741177e+002,3.895059e+002
1.750819e+002,3.860487e+002
1.760461e+002,3.847779e+002
1.770104e+002,3.844373e+002
1.779746e+002,3.843964e+002
1.789388e+002,3.841354e+002
1.799031e+002,3.830823e+002
1.808673e+002,3.805735e+002
1.818315e+002,3.775876e+002
1.827958e+002,3.762699e+002
1.837600e+002,3.763066e+002
1.847242e+002,3.767864e+002
1.856885e+002,3.759144e+002
1.866527e+002,3.730124e+002
1.876169e+002,3.704350e+002
1.885812e+002,3.682385e+002
1.895454e+002,3.665002e+002
1.905096e+002,3.654980e+002
1.914739e+002,3.663957e+002
1.924381e+002,3.671934e+002
1.934023e+002,3.675067e+002
1.943666e+002,3.670724e+002
1.953308e+002,3.655062e+002
1.962950e+002,3.610649e+002
1.972593e+002,3.569612e+002
1.982235e+002,3.552860e+002
1.991877e+002,3.570607e+002
2.001520e+002,3.608191e+002
2.011162e+002,3.624320e+002
2.020804e+002,3.623354e+002
2.030447e+002,3.616663e+002
2.040089e+002,3.616394e+002
2.049731e+002,3.631484e+002
2.059374e+002,3.628162e+002
2.069016e+002,3.589811e+002
2.078658e+002,3.542800e+002
2.088301e+002,3.520950e+002
2.097943e+002,3.546722e+002
2.107585e+002,3.562394e+002
2.117228e+002,3.564004e+002
2.126870e+002,3.553887e+002
2.136512e+002,3.534958e+002
2.146155e+002,3.495936e+002
2.155797e+002,3.459105e+002
2.165439e+002,3.440530e+002
2.175082e+002,3.437980e+002
2.184724e+002,3.440533e+002
2.194366e+002,3.419944e+002
2.204009e+002,3.387482e+002
2.213651e+002,3.375841e+002
2.223293e+002,3.397573e+002
2.232936e+002,3.451281e+002
2.242578e+002,3.478169e+002
2.252220e+002,3.458085e+002
2.261863e+002,3.432025e+002
2.271505e+002,3.414774e+002
2.281147e+002,3.409036e+002
2.290790e+002,3.399859e+002
2.300432e+002,3.385898e+002
2.310074e+002,3.373553e+002
2.319717e+002,3.362082e+002
2.329359e+002,3.348825e+002
2.339001e+002,3.347591e+002
2.348644e+002,3.376951e+002
2.358286e+002,3.419472e+002
2.367928e+002,3.460228e+002
2.377571e+002,3.485643e+002
2.387213e+002,3.490746e+002
2.396855e+002,3.473045e+002
2.406498e+002,3.433947e+002
2.416140e+002,3.390196e+002
2.425782e+002,3.365863e+002
2.435425e+002,3.372328e+002
2.445067e+002,3.384097e+002
2.454709e+002,3.407979e+002
2.464352e+002,3.435369e+002
2.473994e+002,3.449286e+002
2.483636e+002,3.426537e+002
2.493279e+002,3.406826e+002
2.502921e+002,3.406438e+002
2.512563e+002,3.420041e+002
2.522206e+002,3.430720e+002
2.531848e+002,3.408651e+002
2.541490e+002,3.382852e+002
2.551133e+002,3.380964e+002
2.560775e+002,3.406282e+002
2.570417e+002,3.448522e+002
2.580060e+002,3.469032e+002
2.589702e+002,3.465009e+002
2.599344e+002,3.457399e+002
2.608987e+002,3.453484e+002
2.618629e+002,3.454573e+002
2.628271e+002,3.452025e+002
2.637914e+002,3.443587e+002
2.647556e+002,3.439339e+002
2.657198e+002,3.441626e+002
2.666841e+002,3.449863e+002
2.676483e+002,3.461378e+002
2.686125e+002,3.481827e+002
2.695768e+002,3.500547e+002
2.705410e+002,3.509526e+002
2.715052e+002,3.504806e+002
2.724695e+002,3.497288e+002
2.734337e+002,3.505637e+002
2.743979e+002,3.521364e+002
2.753622e+002,3.535701e+002
2.763264e+002,3.541874e+002
2.772906e+002,3.541074e+002
2.782549e+002,3.546721e+002
2.792191e+002,3.563291e+002
2.801833e+002,3.583532e+002
2.811476e+002,3.599771e+002
2.821118e+002,3.608561e+002
2.830760e+002,3.602884e+002
2.840403e+002,3.577708e+002
2.850045e+002,3.548957e+002
2.859688e+002,3.531407e+002
2.869330e+002,3.532592e+002
2.878972e+002,3.545706e+002
2.888615e+002,3.578147e+002
2.898257e+002,3.617466e+002
2.907899e+002,3.645121e+002
2.917542e+002,3.634731e+002
2.927184e+002,3.596878e+002
2.936826e+002,3.575313e+002
2.946469e+002,3.567816e+002
2.956111e+002,3.569203e+002
2.965753e+002,3.572665e+002
2.975396e+002,3.591027e+002
2.985038e+002,3.608333e+002
2.994680e+002,3.628441e+002
3.004323e+002,3.647036e+002
3.013965e+002,3.652761e+002
3.023607e+002,3.617261e+002
3.033250e+002,3.588701e+002
3.042892e+002,3.585750e+002
3.052534e+002,3.604429e+002
3.062177e+002,3.626740e+002
3.071819e+002,3.628226e+002
3.081461e+002,3.622007e+002
3.091104e+002,3.620107e+002
3.100746e+002,3.625019e+002
3.110388e+002,3.634709e+002
3.120031e+002,3.642551e+002
3.129673e+002,3.650767e+002
3.139315e+002,3.665374e+002
3.148958e+002,3.688895e+002
3.158600e+002,3.718120e+002
3.168242e+002,3.734229e+002
3.177885e+002,3.736020e+002
3.187527e+002,3.733612e+002
3.197169e+002,3.723574e+002
3.206812e+002,3.706940e+002
3.216454e+002,3.696927e+002
3.226096e+002,3.703033e+002
3.235739e+002,3.714120e+002
3.245381e+002,3.730798e+002
3.255023e+002,3.751987e+002
3.264666e+002,3.773795e+002
3.274308e+002,3.785696e+002
3.283950e+002,3.790243e+002
3.293593e+002,3.788170e+002
3.303235e+002,3.780468e+002
3.312877e+002,3.769118e+002
3.322520e+002,3.766954e+002
3.332162e+002,3.766610e+002
3.341804e+002,3.770346e+002
3.351447e+002,3.786619e+002
3.361089e+002,3.820917e+002
3.370731e+002,3.843894e+002
3.380374e+002,3.841699e+002
3.390016e+002,3.833730e+002
3.399658e+002,3.823432e+002
3.409301e+002,3.811294e+002
3.418943e+002,3.800047e+002
3.428585e+002,3.798899e+002
3.438228e+002,3.805870e+002
3.447870e+002,3.819857e+002
3.457512e+002,3.839070e+002
3.467155e+002,3.860703e+002
3.476797e+002,3.877395e+002
3.486439e+002,3.890497e+002
3.496081e+002,3.897728e+002
3.505724e+002,3.896693e+002
3.515366e+002,3.885760e+002
3.525008e+002,3.881840e+002
3.534651e+002,3.881143e+002
3.544293e+002,3.883641e+002
3.553935e+002,3.890791e+002
3.563578e+002,3.903147e+002
3.573220e+002,3.911751e+002
3.582862e+002,3.913600e+002
3.592505e+002,3.916383e+002
3.602147e+002,3.926349e+002
3.611789e+002,3.946605e+002
3.621432e+002,3.972612e+002
3.631074e+002,3.989773e+002
3.640716e+002,3.997019e+002
3.650359e+002,3.997358e+002
3.660001e+002,3.993550e+002
3.669643e+002,3.986924e+002
3.679286e+002,3.976278e+002
3.688928e+002,3.965572e+002
3.698570e+002,3.956690e+002
3.708213e+002,3.944738e+002
3.717855e+002,3.922711e+002
3.727497e+002,3.915880e+002
3.737140e+002,3.942999e+002
3.746782e+002,3.974802e+002
3.756424e+002,3.999310e+002
3.766067e+002,4.012966e+002
3.775709e+002,4.020396e+002
3.785351e+002,4.021786e+002
3.794994e+002,4.017667e+002
3.804636e+002,4.004154e+002
3.814278e+002,3.980734e+002
3.823921e+002,3.953238e+002
3.833563e+002,3.956678e+002
3.843205e+002,3.985092e+002
3.852848e+002,4.015410e+002
3.862490e+002,4.037589e+002
3.872132e+002,4.053041e+002
3.881775e+002,4.059576e+002
3.891417e+002,4.049398e+002
3.901059e+002,4.037990e+002
3.910702e+002,4.027437e+002
3.920344e+002,4.016247e+002
3.929986e+002,4.006468e+002
3.939629e+002,4.012231e+002
3.949271e+002,4.023626e+002
3.958913e+002,4.033666e+002
3.968556e+002,4.039063e+002
3.978198e+002,4.042083e+002
3.987840e+002,4.044784e+002
3.997483e+002,4.047038e+002
4.007125e+002,4.052877e+002
4.016767e+002,4.065462e+002
4.026410e+002,4.086080e+002
4.036052e+002,4.108939e+002
4.045694e+002,4.133300e+002
4.055337e+002,4.145995e+002
4.064979e+002,4.139234e+002
4.074621e+002,4.115334e+002
4.084264e+002,4.097360e+002
4.093906e+002,4.100334e+002
4.103548e+002,4.106274e+002
4.113191e+002,4.110471e+002
4.122833e+002,4.111400e+002
4.132475e+002,4.109650e+002
4.142118e+002,4.096768e+002
4.151760e+002,4.087433e+002
4.161402e+002,4.096071e+002
4.171045e+002,4.122347e+002
4.180687e+002,4.155938e+002
4.190329e+002,4.173417e+002
4.199972e+002,4.173963e+002
4.209614e+002,4.179662e+002
4.219256e+002,4.198942e+002
4.228899e+002,4.228585e+002
4.238541e+002,4.251353e+002
4.248183e+002,4.259655e+002
4.257826e+002,4.261292e+002
4.267468e+002,4.251404e+002
4.277110e+002,4.237309e+002
4.286753e+002,4.234001e+002
4.296395e+002,4.261586e+002
4.306037e+002,4.286721e+002
4.315680e+002,4.281862e+002
4.325322e+002,4.259404e+002
4.334964e+002,4.245670e+002
4.344607e+002,4.275255e+002
4.354249e+002,4.338467e+002
4.363891e+002,4.380082e+002
4.373534e+002,4.397582e+002
4.383176e+002,4.397700e+002
4.392818e+002,4.390264e+002
4.402461e+002,4.366568e+002
4.412103e+002,4.360303e+002
4.421745e+002,4.383347e+002
4.431388e+002,4.415504e+002
4.441030e+002,4.435319e+002
4.450672e+002,4.434520e+002
4.460315e+002,4.425999e+002
4.469957e+002,4.417544e+002
4.479599e+002,4.409419e+002
4.489242e+002,4.397909e+002
4.498884e+002,4.379117e+002
4.508526e+002,4.363853e+002
4.518169e+002,4.376389e+002
4.527811e+002,4.405543e+002
4.537453e+002,4.432838e+002
4.547096e+002,4.443044e+002
4.556738e+002,4.431534e+002
4.566380e+002,4.407787e+002
4.576023e+002,4.374802e+002
4.585665e+002,4.350682e+002
4.595307e+002,4.347872e+002
4.604950e+002,4.369193e+002
4.614592e+002,4.393578e+002
4.624234e+002,4.407708e+002
4.633877e+002,4.410937e+002
4.643519e+002,4.408309e+002
4.653161e+002,4.404367e+002
4.662804e+002,4.400286e+002
4.672446e+002,4.387872e+002
4.682088e+002,4.370391e+002
4.691731e+002,4.346075e+002
4.701373e+002,4.315003e+002
4.711015e+002,4.281593e+002
4.720658e+002,4.264903e+002
4.730300e+002,4.276070e+002
4.739942e+002,4.288666e+002
4.749585e+002,4.295855e+002
4.759227e+002,4.299044e+002
4.768869e+002,4.306348e+002
4.778512e+002,4.319348e+002
4.788154e+002,4.320364e+002
4.797796e+002,4.309211e+002
4.807439e+002,4.294111e+002
4.817081e+002,4.285442e+002
4.826723e+002,4.289344e+002
4.836366e+002,4.294438e+002
4.846008e+002,4.288518e+002
4.855650e+002,4.273103e+002
4.865293e+002,4.254121e+002
4.874935e+002,4.239175e+002
4.884577e+002,4.230397e+002
4.894220e+002,4.219164e+002
4.903862e+002,4.206085e+002
4.913504e+002,4.196585e+002
4.923147e+002,4.195423e+002
4.932789e+002,4.203689e+002
4.942431e+002,4.203702e+002
4.952074e+002,4.195150e+002
4.961716e+002,4.179407e+002
4.971358e+002,4.157485e+002
4.981001e+002,4.132775e+002
4.990643e+002,4.119641e+002
5.000285e+002,4.123256e+002
5.009928e+002,4.129830e+002
5.019570e+002,4.132122e+002
5.029212e+002,4.126807e+002
5.038855e+002,4.114989e+002
5.048497e+002,4.102297e+002
5.058139e+002,4.098461e+002
5.067782e+002,4.109487e+002
5.077424e+002,4.133677e+002
5.087066e+002,4.161985e+002
5.096709e+002,4.177344e+002
5.106351e+002,4.175471e+002
5.115993e+002,4.176267e+002
5.125636e+002,4.183609e+002
5.135278e+002,4.195252e+002
5.144921e+002,4.203559e+002
5.154563e+002,4.191950e+002
5.164205e+002,4.190709e+002
5.173848e+002,4.220093e+002
5.183490e+002,4.266645e+002
5.193132e+002,4.312704e+002
5.202775e+002,4.345325e+002
5.212417e+002,4.374370e+002
5.222059e+002,4.418807e+002
5.231702e+002,4.471170e+002
5.241344e+002,4.520071e+002
5.250986e+002,4.559082e+002
5.260629e+002,4.591408e+002
5.270271e+002,4.624902e+002
5.279913e+002,4.644670e+002
5.289556e+002,4.669332e+002
5.299198e+002,4.710377e+002
5.308840e+002,4.768837e+002
5.318483e+002,4.829413e+002
5.328125e+002,4.889006e+002
5.337767e+002,4.956767e+002
5.347410e+002,5.034919e+002
5.357052e+002,5.117095e+002
5.366694e+002,5.193714e+002
5.376337e+002,5.263472e+002
5.385979e+002,5.329083e+002
5.395621e+002,5.380200e+002
5.405264e+002,5.415989e+002
5.414906e+002,5.445776e+002
5.424548e+002,5.485975e+002
5.434191e+002,5.540773e+002
5.443833e+002,5.601371e+002
5.453475e+002,5.690800e+002
5.463118e+002,5.776684e+002
5.472760e+002,5.818575e+002
5.482402e+002,5.794173e+002
5.492045e+002,5.774119e+002
5.501687e+002,5.787498e+002
5.511329e+002,5.809349e+002
5.520972e+002,5.820965e+002
5.530614e+002,5.815972e+002
5.540256e+002,5.809479e+002
5.549899e+002,5.825027e+002
5.559541e+002,5.842645e+002
5.569183e+002,5.850055e+002
5.578826e+002,5.846552e+002
5.588468e+002,5.837780e+002
5.598110e+002,5.826891e+002
5.607753e+002,5.800371e+002
5.617395e+002,5.775409e+002
5.627037e+002,5.762781e+002
5.636680e+002,5.755197e+002
5.646322e+002,5.734254e+002
5.655964e+002,5.689627e+002
5.665607e+002,5.653291e+002
5.675249e+002,5.627855e+002
5.684891e+002,5.602587e+002
5.694534e+002,5.569382e+002
5.704176e+002,5.526874e+002
5.713818e+002,5.483942e+002
5.723461e+002,5.447729e+002
5.733103e+002,5.417537e+002
5.742745e+002,5.393182e+002
5.752388e+002,5.374379e+002
5.762030e+002,5.359717e+002
5.771672e+002,5.338813e+002
5.781315e+002,5.304455e+002
5.790957e+002,5.267559e+002
5.800599e+002,5.235386e+002
5.810242e+002,5.204500e+002
5.819884e+002,5.157734e+002
5.829526e+002,5.077784e+002
5.839169e+002,5.015751e+002
5.848811e+002,4.986712e+002
5.858453e+002,4.978890e+002
5.868096e+002,4.971961e+002
5.877738e+002,4.948724e+002
5.887380e+002,4.913583e+002
5.897023e+002,4.886933e+002
5.906665e+002,4.866984e+002
5.916307e+002,4.849099e+002
5.925950e+002,4.829250e+002
5.935592e+002,4.807173e+002
5.945234e+002,4.761348e+002
5.954876e+002,4.677173e+002
5.964518e+002,4.601924e+002
5.974161e+002,4.565375e+002
5.983803e+002,4.566942e+002
5.993445e+002,4.560088e+002
6.003088e+002,4.541106e+002
6.012730e+002,4.508159e+002
6.022372e+002,4.446736e+002
6.032015e+002,4.370624e+002
6.041657e+002,4.303054e+002
6.051299e+002,4.258011e+002
6.060942e+002,4.221844e+002
6.070584e+002,4.194500e+002
6.080226e+002,4.172846e+002
6.089869e+002,4.145121e+002
6.099511e+002,4.100858e+002
6.109153e+002,4.042819e+002
6.118796e+002,3.999969e+002
6.128438e+002,3.968571e+002
6.138080e+002,3.934728e+002
6.147723e+002,3.889106e+002
6.157365e+002,3.832740e+002
6.167007e+002,3.783221e+002
6.176650e+002,3.754728e+002
6.186292e+002,3.722989e+002
6.195934e+002,3.684633e+002
6.205577e+002,3.644457e+002
6.215219e+002,3.610292e+002
6.224861e+002,3.586336e+002
6.234504e+002,3.563464e+002
6.244146e+002,3.531301e+002
6.253788e+002,3.491985e+002
6.263431e+002,3.450162e+002
6.273073e+002,3.410396e+002
6.282715e+002,3.372846e+002
6.292358e+002,3.342683e+002
6.302000e+002,3.325900e+002
6.311642e+002,3.304361e+002
6.321285e+002,3.266927e+002
6.330927e+002,3.214133e+002
6.340569e+002,3.161095e+002
6.350212e+002,3.115705e+002
6.359854e+002,3.074628e+002
6.369496e+002,3.029341e+002
6.379139e+002,2.986740e+002
6.388781e+002,2.962114e+002
6.398423e+002,2.970673e+002
6.408066e+002,2.985529e+002
6.417708e+002,2.975052e+002
6.427350e+002,2.947003e+002
6.436993e+002,2.910084e+002
6.446635e+002,2.868959e+002
6.456277e+002,2.821976e+002
6.465920e+002,2.779760e+002
6.475562e+002,2.742816e+002
6.485204e+002,2.705367e+002
6.494847e+002,2.669631e+002
6.504489e+002,2.637287e+002
6.514131e+002,2.605801e+002
6.523774e+002,2.572739e+002
6.533416e+002,2.544035e+002
6.543058e+002,2.520140e+002
6.552701e+002,2.497519e+002
6.562343e+002,2.471480e+002
6.571985e+002,2.438944e+002
6.581628e+002,2.405846e+002
6.591270e+002,2.384150e+002
6.600912e+002,2.367559e+002
6.610555e+002,2.345625e+002
6.620197e+002,2.312996e+002
6.629839e+002,2.271057e+002
6.639482e+002,2.227253e+002
6.649124e+002,2.177837e+002
6.658766e+002,2.141324e+002
6.668409e+002,2.124691e+002
6.678051e+002,2.116506e+002
6.687693e+002,2.096187e+002
6.697336e+002,2.052075e+002
6.706978e+002,2.014705e+002
6.716620e+002,2.000224e+002
6.726263e+002,1.995348e+002
6.735905e+002,1.988724e+002
6.745547e+002,1.973205e+002
6.755190e+002,1.946864e+002
6.764832e+002,1.899859e+002
6.774474e+002,1.846411e+002
6.784117e+002,1.809523e+002
6.793759e+002,1.794989e+002
6.803401e+002,1.793778e+002
6.813044e+002,1.786547e+002
6.822686e+002,1.782236e+002
6.832328e+002,1.762297e+002
6.841971e+002,1.712293e+002
6.851613e+002,1.656076e+002
6.861255e+002,1.617574e+002
6.870898e+002,1.602946e+002
6.880540e+002,1.591163e+002
6.890182e+002,1.580463e+002
6.899825e+002,1.566600e+002
6.909467e+002,1.538499e+002
6.919109e+002,1.497584e+002
6.928752e+002,1.459923e+002
6.938394e+002,1.456499e+002
6.948036e+002,1.478824e+002
6.957679e+002,1.471217e+002
6.967321e+002,1.425076e+002
6.976964e+002,1.366989e+002
6.986606e+002,1.333275e+002
6.996248e+002,1.338482e+002
7.005891e+002,1.328693e+002
7.015533e+002,1.289453e+002
7.025175e+002,1.253146e+002
7.034818e+002,1.233821e+002
7.044460e+002,1.230078e+002
7.054102e+002,1.230438e+002
7.063745e+002,1.240507e+002
7.073387e+002,1.246696e+002
7.083029e+002,1.235959e+002
7.092672e+002,1.211695e+002
7.102314e+002,1.180755e+002
7.111956e+002,1.147968e+002
7.121599e+002,1.112358e+002
7.131241e+002,1.098361e+002
7.140883e+002,1.113710e+002
7.150526e+002,1.127129e+002
7.160168e+002,1.121051e+002
7.169810e+002,1.097368e+002
7.179453e+002,1.075154e+002
7.189095e+002,1.043455e+002
7.198737e+002,1.022932e+002
7.208380e+002,1.027486e+002
7.218022e+002,1.042048e+002
7.227664e+002,1.045504e+002
7.237307e+002,1.026938e+002
7.246949e+002,1.000664e+002
7.256591e+002,9.795607e+001
7.266234e+002,9.640398e+001
7.275876e+002,9.562300e+001
7.285518e+002,9.561905e+001
7.295161e+002,9.600414e+001
7.304803e+002,9.579440e+001
7.314445e+002,9.505078e+001
7.324088e+002,9.453580e+001
7.333730e+002,9.378670e+001
7.343372e+002,9.331297e+001
7.353015e+002,9.399222e+001
7.362657e+002,9.624652e+001
7.372299e+002,9.765094e+001
7.381942e+002,9.781210e+001
7.391584e+002,9.728484e+001
7.401226e+002,9.559351e+001
7.410869e+002,9.317984e+001
7.420511e+002,9.180016e+001
7.430153e+002,9.418349e+001
7.439796e+002,9.886284e+001
7.449438e+002,1.014434e+002
7.459080e+002,1.014737e+002
7.468723e+002,1.005070e+002
7.478365e+002,1.004533e+002
7.488007e+002,1.018936e+002
7.497650e+002,1.027322e+002
7.507292e+002,1.027368e+002
7.516934e+002,1.029496e+002
7.526577e+002,1.032990e+002
7.536219e+002,1.036746e+002
7.545861e+002,1.043367e+002
7.555504e+002,1.060963e+002
7.565146e+002,1.076903e+002
7.574788e+002,1.077097e+002
7.584431e+002,1.072738e+002
7.594073e+002,1.079334e+002
7.603715e+002,1.105591e+002
7.613358e+002,1.145160e+002
7.623000e+002,1.181080e+002
7.632642e+002,1.213722e+002
7.642285e+002,1.236901e+002
7.651927e+002,1.246802e+002
7.661569e+002,1.247131e+002
7.671212e+002,1.246104e+002
7.680854e+002,1.244182e+002
7.690496e+002,1.241198e+002
7.700139e+002,1.236991e+002
7.709781e+002,1.232264e+002
7.719423e+002,1.224743e+002
7.729066e+002,1.215251e+002
7.738708e+002,1.212286e+002
7.748350e+002,1.231634e+002
7.757993e+002,1.256485e+002
7.767635e+002,1.267632e+002
7.777277e+002,1.266355e+002
7.786920e+002,1.262962e+002
7.796562e+002,1.267629e+002
7.806204e+002,1.278820e+002
7.815847e+002,1.281715e+002
7.825489e+002,1.269093e+002
7.835131e+002,1.261579e+002
7.844774e+002,1.277875e+002
7.854416e+002,1.310511e+002
7.864058e+002,1.323482e+002
7.873701e+002,1.287198e+002
7.883343e+002,1.249713e+002
7.892985e+002,1.233232e+002
7.902628e+002,1.229095e+002
7.912270e+002,1.227110e+002
7.921912e+002,1.222387e+002
7.931555e+002,1.218028e+002
7.941197e+002,1.220158e+002
7.950839e+002,1.226181e+002
7.960482e+002,1.229651e+002
7.970124e+002,1.228547e+002
7.979766e+002,1.223941e+002
7.989409e+002,1.218481e+002
7.999051e+002,1.213914e+002
8.008693e+002,1.203249e+002
8.018336e+002,1.183290e+002
8.027978e+002,1.164708e+002
8.037620e+002,1.156163e+002
8.047263e+002,1.155810e+002
8.056905e+002,1.150543e+002
8.066547e+002,1.128283e+002
8.076190e+002,1.100074e+002
8.085832e+002,1.075219e+002
8.095474e+002,1.053976e+002
8.105117e+002,1.035016e+002
8.114759e+002,1.016748e+002
8.124401e+002,9.987758e+001
8.134044e+002,9.858986e+001
8.143686e+002,9.803307e+001
8.153328e+002,9.675157e+001
8.162971e+002,9.473532e+001
8.172613e+002,9.257117e+001
8.182255e+002,9.075398e+001
8.191898e+002,8.906898e+001
8.201540e+002,8.730202e+001
8.211182e+002,8.448164e+001
8.220825e+002,8.165419e+001
8.230467e+002,8.028336e+001
8.240109e+002,8.031393e+001
8.249752e+002,7.998991e+001
8.259394e+002,7.711458e+001
8.269036e+002,7.271034e+001
8.278679e+002,6.988988e+001
8.288321e+002,6.840584e+001
8.297963e+002,6.710727e+001
8.307606e+002,6.516156e+001
8.317248e+002,6.276289e+001
8.326890e+002,6.124367e+001
8.336533e+002,6.180823e+001
8.346175e+002,6.196315e+001
8.355817e+002,6.106160e+001
8.365460e+002,5.917459e+001
8.375102e+002,5.648747e+001
8.384744e+002,5.313068e+001
8.394387e+002,5.013290e+001
8.404029e+002,4.782840e+001
8.413671e+002,4.624869e+001
8.423314e+002,4.590662e+001
8.432956e+002,4.665962e+001
8.442598e+002,4.762355e+001
8.452241e+002,4.757745e+001
8.461883e+002,4.646082e+001
8.471525e+002,4.525594e+001
8.481168e+002,4.330859e+001
8.490810e+002,4.206049e+001
8.500452e+002,4.296042e+001
8.510095e+002,4.562436e+001
8.519737e+002,4.714326e+001
8.529379e+002,4.597343e+001
8.539022e+002,4.450267e+001
8.548664e+002,4.353273e+001
8.558306e+002,4.302220e+001
8.567949e+002,4.284001e+001
8.577591e+002,4.286513e+001
8.587233e+002,4.295868e+001
8.596876e+002,4.292699e+001
8.606518e+002,4.256378e+001
8.616160e+002,4.157050e+001
8.625803e+002,3.978574e+001
8.635445e+002,3.817491e+001
8.645087e+002,3.834221e+001
8.654730e+002,4.130243e+001
8.664372e+002,4.347308e+001
8.674014e+002,4.364598e+001
8.683657e+002,4.341121e+001
8.693299e+002,4.307982e+001
8.702941e+002,4.259592e+001
8.712584e+002,4.198831e+001
8.722226e+002,4.161717e+001
8.731868e+002,4.131435e+001
8.741511e+002,4.012762e+001
8.751153e+002,3.881439e+001
8.760795e+002,3.855768e+001
8.770438e+002,3.966502e+001
8.780080e+002,4.135487e+001
8.789722e+002,4.218948e+001
8.799365e+002,4.201065e+001
8.809007e+002,4.131532e+001
8.818649e+002,3.902464e+001
8.828292e+002,3.720067e+001
8.837934e+002,3.764082e+001
8.847576e+002,4.021205e+001
8.857219e+002,4.260806e+001
8.866861e+002,4.417999e+001
8.876503e+002,4.478506e+001
8.886146e+002,4.359747e+001
8.895788e+002,4.158443e+001
8.905430e+002,4.027634e+001
8.915073e+002,4.050912e+001
8.924715e+002,4.155281e+001
8.934357e+002,4.130202e+001
8.944000e+002,3.952646e+001
8.953642e+002,3.893091e+001
8.963284e+002,4.056415e+001
8.972927e+002,4.304410e+001
8.982569e+002,4.459610e+001
8.992211e+002,4.494121e+001
9.001854e+002,4.587498e+001
9.011496e+002,4.833308e+001
9.021138e+002,4.975185e+001
9.030781e+002,4.858276e+001
9.040423e+002,4.649333e+001
9.050065e+002,4.631374e+001
9.059708e+002,4.951657e+001
9.069350e+002,5.378244e+001
9.078992e+002,5.540471e+001
9.088635e+002,5.544131e+001
9.098277e+002,5.500969e+001
9.107919e+002,5.438814e+001
9.117562e+002,5.449934e+001
9.127204e+002,5.702847e+001
9.136846e+002,6.308401e+001
9.146489e+002,6.660469e+001
9.156131e+002,6.644872e+001
9.165773e+002,6.654448e+001
9.175416e+002,6.788583e+001
9.185058e+002,7.017699e+001
9.194700e+002,7.289420e+001
9.204343e+002,7.592502e+001
9.213985e+002,7.870811e+001
9.223627e+002,8.157413e+001
9.233270e+002,8.443163e+001
9.242912e+002,8.665320e+001
9.252554e+002,8.802528e+001
9.262197e+002,8.900204e+001
9.271839e+002,9.043439e+001
9.281481e+002,9.258247e+001
9.291124e+002,9.559506e+001
9.300766e+002,9.983031e+001
9.310408e+002,1.036645e+002
9.320051e+002,1.062309e+002
9.329693e+002,1.077634e+002
9.339335e+002,1.091517e+002
9.348978e+002,1.106493e+002
9.358620e+002,1.128177e+002
9.368262e+002,1.161285e+002
9.377905e+002,1.194735e+002
9.387547e+002,1.217825e+002
9.397189e+002,1.229455e+002
9.406832e+002,1.237772e+002
9.416474e+002,1.251678e+002
9.426116e+002,1.269764e+002
9.435759e+002,1.289717e+002
9.445401e+002,1.313661e+002
9.455043e+002,1.338437e+002
9.464686e+002,1.363415e+002
9.474328e+002,1.387004e+002
9.483970e+002,1.404278e+002
9.493613e+002,1.414230e+002
9.503255e+002,1.416921e+002
9.512897e+002,1.410301e+002
9.522540e+002,1.403413e+002
9.532182e+002,1.401267e+002
9.541824e+002,1.403836e+002
9.551467e+002,1.408798e+002
9.561109e+002,1.416960e+002
9.570751e+002,1.425634e+002
9.580394e+002,1.424588e+002
9.590036e+002,1.414304e+002
9.599678e+002,1.405483e+002
9.609321e+002,1.405470e+002
9.618963e+002,1.412403e+002
9.628605e+002,1.416097e+002
9.638248e+002,1.409691e+002
9.647890e+002,1.416953e+002
9.657532e+002,1.445691e+002
9.667175e+002,1.475374e+002
9.676817e+002,1.490977e+002
9.686459e+002,1.495547e+002
9.696102e+002,1.506920e+002
9.705744e+002,1.538307e+002
9.715386e+002,1.576416e+002
9.725029e+002,1.603863e+002
9.734671e+002,1.623502e+002
9.744313e+002,1.641340e+002
9.753956e+002,1.660324e+002
9.763598e+002,1.681589e+002
9.773240e+002,1.707025e+002
9.782883e+002,1.735450e+002
9.792525e+002,1.773156e+002
9.802167e+002,1.837498e+002
9.811810e+002,1.894747e+002
9.821452e+002,1.914329e+002
9.831094e+002,1.907111e+002
9.840737e+002,1.919991e+002
9.850379e+002,1.985667e+002
9.860021e+002,2.052448e+002
9.869664e+002,2.074909e+002
9.879306e+002,2.070880e+002
9.888948e+002,2.057658e+002
9.898591e+002,2.043609e+002
9.908233e+002,2.034952e+002
9.917875e+002,2.041360e+002
9.927518e+002,2.065361e+002
9.937160e+002,2.076747e+002
9.946802e+002,2.073561e+002
9.956445e+002,2.065551e+002
9.966087e+002,2.050981e+002
9.975729e+002,2.034499e+002
9.985372e+002,2.026513e+002
9.995014e+002,2.030234e+002
1.000466e+003,2.035974e+002
1.001430e+003,2.042597e+002
1.002394e+003,2.049895e+002
1.003358e+003,2.055972e+002
1.004323e+003,2.060934e+002
1.005287e+003,2.065735e+002
1.006251e+003,2.070818e+002
1.007215e+003,2.076034e+002
1.008180e+003,2.087741e+002
1.009144e+003,2.107343e+002
1.010108e+003,2.127249e+002
1.011072e+003,2.145164e+002
1.012036e+003,2.164360e+002
1.013001e+003,2.191968e+002
1.013965e+003,2.230996e+002
1.014929e+003,2.261794e+002
1.015893e+003,2.255461e+002
1.016858e+003,2.258285e+002
1.017822e+003,2.295655e+002
1.018786e+003,2.353839e+002
1.019750e+003,2.408941e+002
1.020715e+003,2.448652e+002
1.021679e+003,2.480133e+002
1.022643e+003,2.518203e+002
1.023607e+003,2.562218e+002
1.024572e+003,2.597462e+002
1.025536e+003,2.618509e+002
1.026500e+003,2.648092e+002
1.027464e+003,2.710961e+002
1.028428e+003,2.799583e+002
1.029393e+003,2.859172e+002
1.030357e+003,2.858674e+002
1.031321e+003,2.860741e+002
1.032285e+003,2.893038e+002
1.033250e+003,2.941467e+002
1.034214e+003,2.993122e+002
1.035178e+003,3.041369e+002
1.036142e+003,3.084561e+002
1.037107e+003,3.120975e+002
1.038071e+003,3.152859e+002
1.039035e+003,3.185642e+002
1.039999e+003,3.216920e+002
1.040964e+003,3.253420e+002
1.041928e+003,3.302247e+002
1.042892e+003,3.359426e+002
1.043856e+003,3.413766e+002
1.044820e+003,3.463830e+002
1.045785e+003,3.509734e+002
1.046749e+003,3.544314e+002
1.047713e+003,3.581826e+002
1.048677e+003,3.636020e+002
1.049642e+003,3.701589e+002
1.050606e+003,3.762553e+002
1.051570e+003,3.808474e+002
1.052534e+003,3.847778e+002
1.053499e+003,3.901483e+002
1.054463e+003,3.966860e+002
1.055427e+003,4.024805e+002
1.056391e+003,4.074290e+002
1.057355e+003,4.126308e+002
1.058320e+003,4.191714e+002
1.059284e+003,4.266322e+002
1.060248e+003,4.320457e+002
1.061212e+003,4.328012e+002
1.062177e+003,4.346990e+002
1.063141e+003,4.406086e+002
1.064105e+003,4.481691e+002
1.065069e+003,4.550392e+002
1.066034e+003,4.608057e+002
1.066998e+003,4.665707e+002
1.067962e+003,4.733063e+002
1.068926e+003,4.806941e+002
1.069891e+003,4.883712e+002
1.070855e+003,4.962811e+002
1.071819e+003,5.029729e+002
1.072783e+003,5.074328e+002
1.073747e+003,5.106140e+002
1.074712e+003,5.140272e+002
1.075676e+003,5.174229e+002
1.076640e+003,5.222434e+002
1.077604e+003,5.310534e+002
1.078569e+003,5.396439e+002
1.079533e+003,5.465435e+002
1.080497e+003,5.520589e+002
1.081461e+003,5.568956e+002
1.082426e+003,5.612634e+002
1.083390e+003,5.645916e+002
1.084354e+003,5.660688e+002
1.085318e+003,5.665850e+002
1.086282e+003,5.684506e+002
1.087247e+003,5.717455e+002
1.088211e+003,5.756058e+002
1.089175e+003,5.797835e+002
1.090139e+003,5.839805e+002
1.091104e+003,5.871940e+002
1.092068e+003,5.889255e+002
1.093032e+003,5.896223e+002
1.093996e+003,5.900358e+002
1.094960e+003,5.900432e+002
1.095925e+003,5.894319e+002
1.096889e+003,5.883323e+002
1.097853e+003,5.869373e+002
1.098817e+003,5.852587e+002
1.099782e+003,5.831989e+002
1.100746e+003,5.808304e+002
1.101710e+003,5.781509e+002
1.102674e+003,5.750497e+002
1.103639e+003,5.715334e+002
1.104603e+003,5.672310e+002
1.105567e+003,5.616129e+002
1.106531e+003,5.549587e+002
1.107495e+003,5.488293e+002
1.108460e+003,5.435018e+002
1.109424e+003,5.384052e+002
1.110388e+003,5.334278e+002
1.111352e+003,5.281353e+002
1.112317e+003,5.221047e+002
1.113281e+003,5.155906e+002
1.114245e+003,5.095988e+002
1.115209e+003,5.050210e+002
1.116174e+003,5.006101e+002
1.117138e+003,4.924438e+002
1.118102e+003,4.808512e+002
1.119066e+003,4.701369e+002
1.120031e+003,4.621288e+002
1.120995e+003,4.552449e+002
1.121959e+003,4.470927e+002
1.122923e+003,4.372241e+002
1.123887e+003,4.281780e+002
1.124852e+003,4.207286e+002
1.125816e+003,4.137306e+002
1.126780e+003,4.075771e+002
1.127744e+003,4.022302e+002
1.128709e+003,3.975013e+002
1.129673e+003,3.927708e+002
1.130637e+003,3.872327e+002
1.131601e+003,3.804569e+002
1.132566e+003,3.729669e+002
1.133530e+003,3.662358e+002
1.134494e+003,3.601991e+002
1.135458e+003,3.537683e+002
1.136422e+003,3.467065e+002
1.137387e+003,3.396520e+002
1.138351e+003,3.328383e+002
1.139315e+003,3.261064e+002
1.140279e+003,3.204712e+002
1.141244e+003,3.173103e+002
1.142208e+003,3.134522e+002
1.143172e+003,3.072712e+002
1.144136e+003,3.003683e+002
1.145101e+003,2.941250e+002
1.146065e+003,2.886934e+002
1.147029e+003,2.833874e+002
1.147993e+003,2.776169e+002
1.148958e+003,2.719037e+002
1.149922e+003,2.681500e+002
1.150886e+003,2.669862e+002
1.151850e+003,2.637282e+002
1.152814e+003,2.557754e+002
1.153779e+003,2.473081e+002
1.154743e+003,2.422737e+002
1.155707e+003,2.402291e+002
1.156671e+003,2.376845e+002
1.157636e+003,2.338801e+002
1.158600e+003,2.293783e+002
1.159564e+003,2.239797e+002
1.160528e+003,2.186415e+002
1.161493e+003,2.144458e+002
1.162457e+003,2.110500e+002
1.163421e+003,2.069541e+002
1.164385e+003,2.009494e+002
1.165349e+003,1.938416e+002
1.166314e+003,1.887858e+002
1.167278e+003,1.873463e+002
1.168242e+003,1.848471e+002
1.169206e+003,1.803462e+002
1.170171e+003,1.752036e+002
1.171135e+003,1.699311e+002
1.172099e+003,1.648984e+002
1.173063e+003,1.611731e+002
1.174028e+003,1.594851e+002
1.174992e+003,1.575759e+002
1.175956e+003,1.534641e+002
1.176920e+003,1.484391e+002
1.177885e+003,1.432346e+002
1.178849e+003,1.382557e+002
1.179813e+003,1.344025e+002
1.180777e+003,1.323942e+002
1.181741e+003,1.316495e+002
1.182706e+003,1.301245e+002
1.183670e+003,1.277209e+002
1.184634e+003,1.247904e+002
1.185598e+003,1.212913e+002
1.186563e+003,1.172526e+002
1.187527e+003,1.124340e+002
1.188491e+003,1.074774e+002
1.189455e+003,1.031849e+002
1.190420e+003,9.970636e+001
1.191384e+003,9.717587e+001
1.192348e+003,9.647726e+001
1.193312e+003,9.612115e+001
1.194276e+003,9.372421e+001
1.195241e+003,8.958530e+001
1.196205e+003,8.550012e+001
1.197169e+003,8.233047e+001
1.198133e+003,7.980688e+001
1.199098e+003,7.756143e+001
1.200062e+003,7.574954e+001
1.201026e+003,7.347711e+001
1.201990e+003,7.030609e+001
1.202955e+003,6.731314e+001
1.203919e+003,6.506516e+001
1.204883e+003,6.341385e+001
1.205847e+003,6.204785e+001
1.206812e+003,6.060953e+001
1.207776e+003,5.866846e+001
1.208740e+003,5.585431e+001
1.209704e+003,5.263107e+001
1.210668e+003,5.024426e+001
1.211633e+003,4.855399e+001
1.212597e+003,4.737201e+001
1.213561e+003,4.725345e+001
1.214525e+003,4.706857e+001
1.215490e+003,4.519626e+001
1.216454e+003,4.179395e+001
1.217418e+003,3.919714e+001
1.218382e+003,3.782651e+001
1.219347e+003,3.661505e+001
1.220311e+003,3.577396e+001
1.221275e+003,3.502481e+001
1.222239e+003,3.370395e+001
1.223203e+003,3.195029e+001
1.224168e+003,3.061911e+001
1.225132e+003,3.022363e+001
1.226096e+003,2.997696e+001
1.227060e+003,2.825751e+001
1.228025e+003,2.494714e+001
1.228989e+003,2.294583e+001
1.229953e+003,2.304330e+001
1.230917e+003,2.376328e+001
1.231882e+003,2.433893e+001
1.232846e+003,2.439365e+001
1.233810e+003,2.378772e+001
1.234774e+003,2.270340e+001
1.235739e+003,2.121420e+001
1.236703e+003,1.879480e+001
1.237667e+003,1.679764e+001
1.238631e+003,1.643469e+001
1.239595e+003,1.680289e+001
1.240560e+003,1.636774e+001
1.241524e+003,1.471829e+001
1.242488e+003,1.293710e+001
1.243452e+003,1.248257e+001
1.244417e+003,1.348105e+001
1.245381e+003,1.413037e+001
1.246345e+003,1.308636e+001
1.247309e+003,1.304004e+001
1.248274e+003,1.567868e+001
1.249238e+003,1.819690e+001
1.250202e+003,1.786392e+001
1.251166e+003,1.536206e+001
1.252130e+003,1.362018e+001
1.253095e+003,1.420581e+001
1.254059e+003,1.546826e+001
1.255023e+003,1.520587e+001
1.255987e+003,1.402039e+001
1.256952e+003,1.320593e+001
1.257916e+003,1.271866e+001
1.258880e+003,1.245117e+001
1.259844e+003,1.238412e+001
1.260809e+003,1.254230e+001
1.261773e+003,1.315195e+001
1.262737e+003,1.440250e+001
1.263701e+003,1.431958e+001
1.264666e+003,1.133380e+001
1.265630e+003,9.053619e+000
1.266594e+003,9.018066e+000
1.267558e+003,1.012378e+001
1.268522e+003,1.103204e+001
1.269487e+003,1.120175e+001
1.270451e+003,1.081848e+001
1.271415e+003,1.027539e+001
1.272379e+003,9.955139e+000
1.273344e+003,1.029526e+001
1.274308e+003,1.135712e+001
1.275272e+003,1.207272e+001
1.276236e+003,1.184741e+001
1.277201e+003,1.116333e+001
1.278165e+003,1.079068e+001
1.279129e+003,1.077472e+001
1.280093e+003,1.049985e+001
1.281057e+003,9.633575e+000
1.282022e+003,8.686310e+000
1.282986e+003,7.844299e+000
1.283950e+003,7.121918e+000
1.284914e+003,6.509033e+000
1.285879e+003,6.212494e+000
1.286843e+003,6.801483e+000
1.287807e+003,8.355438e+000
1.288771e+003,9.534546e+000
1.289736e+003,8.555328e+000
1.290700e+003,5.727142e+000
1.291664e+003,4.946167e+000
1.292628e+003,7.457794e+000
1.293593e+003,9.093597e+000
1.294557e+003,9.209961e+000
1.295521e+003,8.581329e+000
1.296485e+003,7.461700e+000
1.297449e+003,6.322937e+000
1.298414e+003,5.688202e+000
1.299378e+003,5.626312e+000
1.300342e+003,5.690826e+000
1.301306e+003,5.499878e+000
1.302271e+003,5.198425e+000
1.303235e+003,5.374237e+000
1.304199e+003,6.314941e+000
1.305163e+003,7.305695e+000
1.306128e+003,8.424042e+000
1.307092e+003,8.956543e+000
1.308056e+003,7.293976e+000
1.309020e+003,3.744659e+000
1.309984e+003,2.148468e+000
1.310949e+003,4.633087e+000
1.311913e+003,7.369934e+000
1.312877e+003,7.420441e+000
1.313841e+003,6.688293e+000
1.314806e+003,7.113556e+000
1.315770e+003,8.353210e+000
1.316734e+003,8.711182e+000
1.317698e+003,7.333160e+000
1.318663e+003,5.281647e+000
1.319627e+003,4.314087e+000
1.320591e+003,4.357788e+000
1.321555e+003,4.367188e+000
1.322520e+003,4.818756e+000
1.323484e+003,4.894531e+000
1.324448e+003,4.243164e+000
1.325412e+003,3.844391e+000
1.326376e+003,4.540314e+000
1.327341e+003,5.800415e+000
1.328305e+003,6.081299e+000
1.329269e+003,4.630554e+000
1.330233e+003,2.985687e+000
1.331198e+003,3.569794e+000
1.332162e+003,5.929413e+000
1.333126e+003,6.881714e+000
1.334090e+003,6.334137e+000
1.335055e+003,5.735596e+000
1.336019e+003,5.406555e+000
1.336983e+003,5.034485e+000
1.337947e+003,4.429047e+000
1.338911e+003,3.815948e+000
1.339876e+003,3.659546e+000
1.340840e+003,4.039001e+000
1.341804e+003,5.032745e+000
1.342768e+003,6.864319e+000
1.343733e+003,7.962128e+000
1.344697e+003,7.400391e+000
1.345661e+003,6.015778e+000
1.346625e+003,5.029968e+000
1.347590e+003,4.891296e+000
1.348554e+003,5.425629e+000
1.349518e+003,6.635773e+000
1.350482e+003,8.416107e+000
1.351447e+003,9.079559e+000
1.352411e+003,8.856079e+000
1.353375e+003,7.887054e+000
1.354339e+003,4.947876e+000
1.355303e+003,2.284668e+000
1.356268e+003,1.872467e+000
1.357232e+003,3.038544e+000
1.358196e+003,3.790710e+000
1.359160e+003,3.270081e+000
1.360125e+003,2.400543e+000
1.361089e+003,2.384186e+000
1.362053e+003,3.100739e+000
1.363017e+003,3.547668e+000
1.363982e+003,3.707428e+000
1.364946e+003,3.689362e+000
1.365910e+003,3.201538e+000
1.366874e+003,2.860321e+000
1.367839e+003,3.239838e+000
1.368803e+003,4.174042e+000
1.369767e+003,5.369080e+000
1.370731e+003,7.058655e+000
1.371695e+003,8.134277e+000
1.372660e+003,7.653625e+000
1.373624e+003,6.688599e+000
1.374588e+003,5.691895e+000
1.375552e+003,4.724945e+000
1.376517e+003,4.040741e+000
1.377481e+003,3.726807e+000
1.378445e+003,3.394531e+000
1.379409e+003,2.507935e+000
1.380374e+003,1.474304e+000
1.381338e+003,2.340668e+000
1.382302e+003,6.231476e+000
1.383266e+003,8.550507e+000
1.384230e+003,8.989716e+000
1.385195e+003,8.377747e+000
1.386159e+003,5.885101e+000
1.387123e+003,3.632782e+000
1.388087e+003,4.403870e+000
1.389052e+003,7.803802e+000
1.390016e+003,1.051492e+001
1.390980e+003,1.026755e+001
1.391944e+003,8.217407e+000
1.392909e+003,6.740540e+000
1.393873e+003,6.003571e+000
1.394837e+003,4.855865e+000
1.395801e+003,2.945740e+000
1.396766e+003,1.716644e+000
1.397730e+003,1.858276e+000
1.398694e+003,2.325439e+000
1.399658e+003,1.765503e+000
1.400622e+003,4.316406e-001
1.401587e+003,1.076965e-001
1.402551e+003,1.655640e+000
1.403515e+003,3.812408e+000
1.404479e+003,6.029907e+000
1.405444e+003,7.809387e+000
1.406408e+003,7.949768e+000
1.407372e+003,6.646301e+000
1.408336e+003,5.713379e+000
1.409301e+003,5.944458e+000
1.410265e+003,6.514862e+000
1.411229e+003,6.531281e+000
1.412193e+003,6.222809e+000
1.413157e+003,6.141571e+000
1.414122e+003,6.332916e+000
1.415086e+003,6.125275e+000
1.416050e+003,4.761200e+000
1.417014e+003,3.745026e+000
1.417979e+003,4.143280e+000
1.418943e+003,5.360046e+000
1.419907e+003,6.471619e+000
1.420871e+003,7.072266e+000
1.421836e+003,7.248352e+000
1.422800e+003,7.157349e+000
1.423764e+003,6.713043e+000
1.424728e+003,5.426971e+000
1.425693e+003,2.561829e+000
1.426657e+003,1.753357e+000
1.427621e+003,4.203156e+000
1.428585e+003,6.360901e+000
1.429549e+003,7.294189e+000
1.430514e+003,7.253296e+000
1.431478e+003,6.237579e+000
1.432442e+003,4.869904e+000
1.433406e+003,4.441223e+000
1.434371e+003,5.444214e+000
1.435335e+003,6.770203e+000
1.436299e+003,7.133423e+000
1.437263e+003,6.693573e+000
1.438228e+003,6.482849e+000
1.439192e+003,6.533905e+000
1.440156e+003,6.039703e+000
1.441120e+003,4.239655e+000
1.442084e+003,2.855591e+000
1.443049e+003,3.332001e+000
1.444013e+003,5.061584e+000
1.444977e+003,6.688263e+000
1.445941e+003,7.868195e+000
1.446906e+003,8.874512e+000
1.447870e+003,1.024530e+001
1.448834e+003,1.156488e+001
1.449798e+003,1.207535e+001
1.450763e+003,1.180942e+001
1.451727e+003,1.090381e+001
1.452691e+003,9.408722e+000
1.453655e+003,8.024170e+000
1.454620e+003,7.506897e+000
1.455584e+003,7.515411e+000
1.456548e+003,6.624237e+000
1.457512e+003,4.551910e+000
1.458476e+003,4.437805e+000
1.459441e+003,8.175751e+000
1.460405e+003,1.084116e+001
1.461369e+003,1.007095e+001
1.462333e+003,8.571106e+000
1.463298e+003,8.000092e+000
1.464262e+003,8.188080e+000
1.465226e+003,8.229736e+000
1.466190e+003,7.807098e+000
1.467155e+003,7.779083e+000
1.468119e+003,9.383667e+000
1.469083e+003,1.221799e+001
1.470047e+003,1.325110e+001
1.471011e+003,1.109348e+001
1.471976e+003,1.049243e+001
1.472940e+003,1.291266e+001
1.473904e+003,1.465439e+001
1.474868e+003,1.424307e+001
1.475833e+003,1.328381e+001
1.476797e+003,1.335556e+001
1.477761e+003,1.434323e+001
1.478725e+003,1.528198e+001
1.479690e+003,1.571332e+001
1.480654e+003,1.578796e+001
1.481618e+003,1.550494e+001
1.482582e+003,1.485498e+001
1.483547e+003,1.497913e+001
1.484511e+003,1.642050e+001
1.485475e+003,1.689246e+001
1.486439e+003,1.556738e+001
1.487403e+003,1.475787e+001
1.488368e+003,1.620447e+001
1.489332e+003,1.863235e+001
1.490296e+003,1.995001e+001
1.491260e+003,1.981741e+001
1.492225e+003,1.936588e+001
1.493189e+003,1.930914e+001
1.494153e+003,1.972183e+001
1.495117e+003,2.071732e+001
1.496082e+003,2.212283e+001
1.497046e+003,2.277301e+001
1.498010e+003,2.203601e+001
1.498974e+003,2.190314e+001
1.499938e+003,2.426675e+001
1.500903e+003,2.709253e+001
1.501867e+003,2.852252e+001
1.502831e+003,2.912787e+001
1.503795e+003,3.002664e+001
1.504760e+003,3.103323e+001
1.505724e+003,3.177817e+001
1.506688e+003,3.248035e+001
1.507652e+003,3.316196e+001
1.508617e+003,3.359943e+001
1.509581e+003,3.399612e+001
1.510545e+003,3.462915e+001
1.511509e+003,3.523026e+001
1.512474e+003,3.524356e+001
1.513438e+003,3.453339e+001
1.514402e+003,3.373526e+001
1.515366e+003,3.367673e+001
1.516330e+003,3.428082e+001
1.517295e+003,3.428244e+001
1.518259e+003,3.279303e+001
1.519223e+003,3.132489e+001
1.520187e+003,3.168491e+001
1.521152e+003,3.200073e+001
1.522116e+003,3.083563e+001
1.523080e+003,2.883051e+001
1.524044e+003,2.625760e+001
1.525009e+003,2.318539e+001
1.525973e+003,2.070883e+001
1.526937e+003,1.988730e+001
1.527901e+003,2.005911e+001
1.528865e+003,1.971661e+001
1.529830e+003,1.876266e+001
1.530794e+003,1.813257e+001
1.531758e+003,1.803799e+001
1.532722e+003,1.767856e+001
1.533687e+003,1.650275e+001
1.534651e+003,1.562692e+001
1.535615e+003,1.570554e+001
1.536579e+003,1.614578e+001
1.537544e+003,1.625317e+001
1.538508e+003,1.590485e+001
1.539472e+003,1.531171e+001
1.540436e+003,1.464307e+001
1.541401e+003,1.406012e+001
1.542365e+003,1.387573e+001
1.543329e+003,1.407654e+001
1.544293e+003,1.334552e+001
1.545257e+003,1.088550e+001
1.546222e+003,9.168732e+000
1.547186e+003,8.823730e+000
1.548150e+003,9.428619e+000
1.549114e+003,1.102225e+001
1.550079e+003,1.266400e+001
1.551043e+003,1.348404e+001
1.552007e+003,1.345670e+001
1.552971e+003,1.311923e+001
1.553936e+003,1.286865e+001
1.554900e+003,1.261792e+001
1.555864e+003,1.199039e+001
1.556828e+003,1.084558e+001
1.557792e+003,1.007141e+001
1.558757e+003,1.050195e+001
1.559721e+003,1.035294e+001
1.560685e+003,8.864655e+000
1.561649e+003,7.478851e+000
1.562614e+003,6.424042e+000
1.563578e+003,6.087311e+000
1.564542e+003,7.436432e+000
1.565506e+003,9.871552e+000
1.566471e+003,1.113879e+001
1.567435e+003,1.017099e+001
1.568399e+003,9.040741e+000
1.569363e+003,1.070663e+001
1.570328e+003,1.451205e+001
1.571292e+003,1.565680e+001
1.572256e+003,1.282248e+001
1.573220e+003,1.115283e+001
1.574184e+003,1.096411e+001
1.575149e+003,1.072501e+001
1.576113e+003,9.986328e+000
1.577077e+003,8.891541e+000
1.578041e+003,7.528992e+000
1.579006e+003,6.454681e+000
1.579970e+003,6.459290e+000
1.580934e+003,7.619324e+000
1.581898e+003,9.129120e+000
1.582863e+003,1.017569e+001
1.583827e+003,1.047800e+001
1.584791e+003,1.000476e+001
1.585755e+003,9.059052e+000
1.586719e+003,8.302277e+000
1.587684e+003,7.403931e+000
1.588648e+003,6.972656e+000
1.589612e+003,7.386841e+000
1.590576e+003,8.009247e+000
1.591541e+003,8.072906e+000
1.592505e+003,7.899902e+000
1.593469e+003,8.555328e+000
1.594433e+003,1.009351e+001
1.595398e+003,1.109402e+001
1.596362e+003,1.061954e+001
1.597326e+003,1.001230e+001
1.598290e+003,1.150995e+001
1.599255e+003,1.466663e+001
1.600219e+003,1.515363e+001
1.601183e+003,1.179596e+001
1.602147e+003,9.160797e+000
1.603111e+003,7.867889e+000
1.604076e+003,7.473755e+000
1.605040e+003,7.700378e+000
1.606004e+003,8.248718e+000
1.606968e+003,9.057739e+000
1.607933e+003,9.930420e+000
1.608897e+003,1.048190e+001
1.609861e+003,1.063565e+001
1.610825e+003,1.045438e+001
1.611790e+003,9.729309e+000
1.612754e+003,8.711517e+000
1.613718e+003,9.028778e+000
1.614682e+003,1.133893e+001
1.615646e+003,1.254208e+001
1.616611e+003,1.293649e+001
1.617575e+003,1.234512e+001
1.618539e+003,9.497986e+000
1.619503e+003,6.538666e+000
1.620468e+003,5.251404e+000
1.621432e+003,5.449524e+000
1.622396e+003,6.583832e+000
1.623360e+003,8.316620e+000
1.624325e+003,9.960419e+000
1.625289e+003,1.102347e+001
1.626253e+003,1.153336e+001
1.627217e+003,1.140482e+001
1.628182e+003,1.050858e+001
1.629146e+003,1.015057e+001
1.630110e+003,1.085748e+001
1.631074e+003,1.133759e+001
1.632038e+003,1.159952e+001
1.633003e+003,1.162534e+001
1.633967e+003,1.126108e+001
1.634931e+003,1.066281e+001
1.635895e+003,9.588806e+000
1.636860e+003,8.485046e+000
1.637824e+003,8.916382e+000
1.638788e+003,1.144455e+001
1.639752e+003,1.409265e+001
1.640717e+003,1.465167e+001
1.641681e+003,1.382309e+001
1.642645e+003,1.390192e+001
1.643609e+003,1.525754e+001
1.644573e+003,1.579608e+001
1.645538e+003,1.454236e+001
1.646502e+003,1.337903e+001
1.647466e+003,1.319373e+001
1.648430e+003,1.333838e+001
1.649395e+003,1.335300e+001
1.650359e+003,1.325931e+001
1.651323e+003,1.326895e+001
1.652287e+003,1.330762e+001
1.653252e+003,1.273441e+001
1.654216e+003,1.111209e+001
1.655180e+003,9.561096e+000
1.656144e+003,1.018588e+001
1.657109e+003,1.287299e+001
1.658073e+003,1.390271e+001
1.659037e+003,1.228311e+001
1.660001e+003,1.071237e+001
1.660965e+003,8.681366e+000
1.661930e+003,7.411530e+000
1.662894e+003,8.264038e+000
1.663858e+003,9.770508e+000
1.664822e+003,1.010345e+001
1.665787e+003,9.628204e+000
1.666751e+003,9.906677e+000
1.667715e+003,1.136047e+001
1.668679e+003,1.280051e+001
1.669644e+003,1.319717e+001
1.670608e+003,1.306619e+001
1.671572e+003,1.365836e+001
1.672536e+003,1.512579e+001
1.673500e+003,1.603018e+001
1.674465e+003,1.583771e+001
1.675429e+003,1.534119e+001
1.676393e+003,1.413464e+001
1.677357e+003,1.353778e+001
1.678322e+003,1.541876e+001
1.679286e+003,1.801920e+001
1.680250e+003,1.836584e+001
1.681214e+003,1.701028e+001
1.682179e+003,1.732083e+001
1.683143e+003,2.054108e+001
1.684107e+003,2.354153e+001
1.685071e+003,2.285712e+001
1.686036e+003,1.984351e+001
1.687000e+003,1.874060e+001
1.687964e+003,1.984821e+001
1.688928e+003,2.118610e+001
1.689892e+003,2.274850e+001
1.690857e+003,2.407941e+001
1.691821e+003,2.545615e+001
1.692785e+003,2.577658e+001
1.693749e+003,2.368906e+001
1.694714e+003,2.115161e+001
1.695678e+003,2.023459e+001
1.696642e+003,2.095068e+001
1.697606e+003,2.290228e+001
1.698571e+003,2.613525e+001
1.699535e+003,2.876419e+001
1.700499e+003,2.826337e+001
1.701463e+003,2.598029e+001
1.702427e+003,2.526367e+001
1.703392e+003,2.596698e+001
1.704356e+003,2.669949e+001
1.705320e+003,2.727628e+001
1.706284e+003,2.828339e+001
1.707249e+003,3.021964e+001
1.708213e+003,3.226346e+001
1.709177e+003,3.405881e+001
1.710141e+003,3.532629e+001
1.711106e+003,3.500623e+001
1.712070e+003,3.315863e+001
1.713034e+003,3.220947e+001
1.713998e+003,3.344989e+001
1.714963e+003,3.500940e+001
1.715927e+003,3.544934e+001
1.716891e+003,3.527170e+001
1.717855e+003,3.504813e+001
1.718819e+003,3.478647e+001
1.719784e+003,3.487442e+001
1.720748e+003,3.563443e+001
1.721712e+003,3.638574e+001
1.722676e+003,3.646243e+001
1.723641e+003,3.649066e+001
1.724605e+003,3.730994e+001
1.725569e+003,3.829843e+001
1.726533e+003,3.809668e+001
1.727498e+003,3.689981e+001
1.728462e+003,3.645819e+001
1.729426e+003,3.743024e+001
1.730390e+003,3.851389e+001
1.731354e+003,3.935321e+001
1.732319e+003,3.983383e+001
1.733283e+003,4.021683e+001
1.734247e+003,4.022894e+001
1.735211e+003,3.850049e+001
1.736176e+003,3.518481e+001
1.737140e+003,3.302899e+001
1.738104e+003,3.367966e+001
1.739068e+003,3.559506e+001
1.740033e+003,3.668198e+001
1.740997e+003,3.695810e+001
1.741961e+003,3.702945e+001
1.742925e+003,3.705978e+001
1.743890e+003,3.681458e+001
1.744854e+003,3.643323e+001
1.745818e+003,3.561920e+001
1.746782e+003,3.356754e+001
1.747746e+003,3.161444e+001
1.748711e+003,3.096402e+001
1.749675e+003,3.115747e+001
1.750639e+003,3.145105e+001
1.751603e+003,3.168640e+001
1.752568e+003,3.184338e+001
1.753532e+003,3.182425e+001
1.754496e+003,3.193188e+001
1.755460e+003,3.271326e+001
1.756425e+003,3.385095e+001
1.757389e+003,3.432806e+001
1.758353e+003,3.424405e+001
1.759317e+003,3.371439e+001
1.760281e+003,3.247537e+001
1.761246e+003,3.154214e+001
1.762210e+003,3.122571e+001
1.763174e+003,3.104767e+001
1.764138e+003,3.071448e+001
1.765103e+003,3.041116e+001
1.766067e+003,3.046719e+001
1.767031e+003,3.090009e+001
1.767995e+003,3.138559e+001
1.768960e+003,3.172635e+001
1.769924e+003,3.205673e+001
1.770888e+003,3.226257e+001
1.771852e+003,3.259241e+001
1.772817e+003,3.426154e+001
1.773781e+003,3.653769e+001
1.774745e+003,3.621042e+001
1.775709e+003,3.301227e+001
1.776673e+003,3.030182e+001
1.777638e+003,2.934106e+001
1.778602e+003,2.884521e+001
1.779566e+003,2.798932e+001
1.780530e+003,2.734872e+001
1.781495e+003,2.752026e+001
1.782459e+003,2.815955e+001
1.783423e+003,2.855304e+001
1.784387e+003,2.874966e+001
1.785352e+003,2.862408e+001
1.786316e+003,2.793680e+001
1.787280e+003,2.740024e+001
1.788244e+003,2.720874e+001
1.789208e+003,2.740698e+001
1.790173e+003,2.832083e+001
1.791137e+003,2.952414e+001
1.792101e+003,3.028101e+001
1.793065e+003,3.040152e+001
1.794030e+003,2.988785e+001
1.794994e+003,2.875183e+001
1.795958e+003,2.748572e+001
1.796922e+003,2.677713e+001
1.797887e+003,2.662650e+001
1.798851e+003,2.707675e+001
1.799815e+003,2.834201e+001
1.800779e+003,2.864001e+001
1.801744e+003,2.696411e+001
1.802708e+003,2.588687e+001
1.803672e+003,2.725201e+001
1.804636e+003,2.859204e+001
1.805600e+003,2.790012e+001
1.806565e+003,2.622620e+001
1.807529e+003,2.496335e+001
1.808493e+003,2.435510e+001
1.809457e+003,2.446014e+001
1.810422e+003,2.548169e+001
1.811386e+003,2.637164e+001
1.812350e+003,2.572946e+001
1.813314e+003,2.445737e+001
1.814279e+003,2.450259e+001
1.815243e+003,2.535245e+001
1.816207e+003,2.477643e+001
1.817171e+003,2.283182e+001
1.818135e+003,2.226004e+001
1.819100e+003,2.386185e+001
1.820064e+003,2.580179e+001
1.821028e+003,2.713919e+001
1.821992e+003,2.770621e+001
1.822957e+003,2.675299e+001
1.823921e+003,2.454092e+001
1.824885e+003,2.406686e+001
1.825849e+003,2.644553e+001
1.826814e+003,2.777710e+001
1.827778e+003,2.619110e+001
1.828742e+003,2.453479e+001
1.829706e+003,2.403735e+001
1.830671e+003,2.426233e+001
1.831635e+003,2.520508e+001
1.832599e+003,2.663644e+001
1.833563e+003,2.805014e+001
1.834527e+003,2.899271e+001
1.835492e+003,2.895355e+001
1.836456e+003,2.780457e+001
1.837420e+003,2.661566e+001
1.838384e+003,2.685886e+001
1.839349e+003,2.800928e+001
1.840313e+003,2.756192e+001
1.841277e+003,2.532962e+001
1.842241e+003,2.447693e+001
1.843206e+003,2.519537e+001
1.844170e+003,2.612317e+001
1.845134e+003,2.773135e+001
1.846098e+003,2.873489e+001
1.847063e+003,2.731451e+001
1.848027e+003,2.521677e+001
1.848991e+003,2.430133e+001
1.849955e+003,2.438220e+001
1.850919e+003,2.469617e+001
1.851884e+003,2.529199e+001
1.852848e+003,2.635846e+001
1.853812e+003,2.808493e+001
1.854776e+003,2.913495e+001
1.855741e+003,2.859079e+001
1.856705e+003,2.744693e+001
1.857669e+003,2.658511e+001
1.858633e+003,2.629529e+001
1.859598e+003,2.703708e+001
1.860562e+003,2.834174e+001
1.861526e+003,2.842352e+001
1.862490e+003,2.655759e+001
1.863454e+003,2.407907e+001
1.864419e+003,2.239432e+001
1.865383e+003,2.218835e+001
1.866347e+003,2.503500e+001
1.867311e+003,3.115408e+001
1.868276e+003,3.311014e+001
1.869240e+003,2.831430e+001
1.870204e+003,2.551801e+001
1.871168e+003,2.791537e+001
1.872133e+003,2.971262e+001
1.873097e+003,2.725369e+001
1.874061e+003,2.406042e+001
1.875025e+003,2.353226e+001
1.875990e+003,2.477173e+001
1.876954e+003,2.576868e+001
1.877918e+003,2.629633e+001
1.878882e+003,2.704233e+001
1.879846e+003,2.825970e+001
1.880811e+003,2.935144e+001
1.881775e+003,2.992279e+001
1.882739e+003,3.032010e+001
1.883703e+003,3.060190e+001
1.884668e+003,3.073727e+001
1.885632e+003,3.131030e+001
1.886596e+003,3.227383e+001
1.887560e+003,3.246790e+001
1.888525e+003,3.157172e+001
1.889489e+003,3.080179e+001
1.890453e+003,3.103754e+001
1.891417e+003,3.162234e+001
1.892381e+003,3.150723e+001
1.893346e+003,3.072525e+001
1.894310e+003,2.981998e+001
1.895274e+003,2.856485e+001
1.896238e+003,2.773981e+001
1.897203e+003,2.757120e+001
1.898167e+003,2.763019e+001
1.899131e+003,2.804071e+001
1.900095e+003,2.866748e+001
1.901060e+003,2.930804e+001
1.902024e+003,2.999783e+001
1.902988e+003,3.112894e+001
1.903952e+003,3.218448e+001
1.904917e+003,3.187424e+001
1.905881e+003,3.005695e+001
1.906845e+003,2.852695e+001
1.907809e+003,2.849084e+001
1.908773e+003,2.908722e+001
1.909738e+003,2.916388e+001
1.910702e+003,2.932733e+001
1.911666e+003,3.112823e+001
1.912630e+003,3.328336e+001
1.913595e+003,3.243256e+001
1.914559e+003,2.886163e+001
1.915523e+003,2.605310e+001
1.916487e+003,2.549707e+001
1.917452e+003,2.664218e+001
1.918416e+003,2.886029e+001
1.919380e+003,3.127802e+001
1.920344e+003,3.262152e+001
1.921308e+003,3.305173e+001
1.922273e+003,3.317499e+001
1.923237e+003,3.275919e+001
1.924201e+003,3.211816e+001
1.925165e+003,3.135614e+001
1.926130e+003,3.028879e+001
1.927094e+003,2.839047e+001
1.928058e+003,2.743549e+001
1.929022e+003,2.898105e+001
1.929987e+003,3.099551e+001
1.930951e+003,3.099402e+001
1.931915e+003,2.948947e+001
1.932879e+003,2.863226e+001
1.933844e+003,2.887924e+001
1.934808e+003,2.879529e+001
1.935772e+003,2.735022e+001
1.936736e+003,2.544785e+001
1.937700e+003,2.368884e+001
1.938665e+003,2.268707e+001
1.939629e+003,2.323495e+001
1.940593e+003,2.455157e+001
1.941557e+003,2.497284e+001
1.942522e+003,2.445239e+001
1.943486e+003,2.472363e+001
1.944450e+003,2.651193e+001
1.945414e+003,2.793350e+001
1.946379e+003,2.717090e+001
1.947343e+003,2.566190e+001
1.948307e+003,2.637704e+001
1.949271e+003,2.866168e+001
1.950235e+003,2.839948e+001
1.951200e+003,2.536493e+001
1.952164e+003,2.421808e+001
1.953128e+003,2.651953e+001
1.954092e+003,2.772260e+001
1.955057e+003,2.505380e+001
1.956021e+003,2.147766e+001
1.956985e+003,1.911887e+001
1.957949e+003,1.840701e+001
1.958914e+003,1.996344e+001
1.959878e+003,2.289844e+001
1.960842e+003,2.436139e+001
1.961806e+003,2.426852e+001
1.962771e+003,2.426273e+001
1.963735e+003,2.427313e+001
1.964699e+003,2.437753e+001
1.965663e+003,2.474725e+001
1.966627e+003,2.491394e+001
1.967592e+003,2.478012e+001
1.968556e+003,2.462943e+001
1.969520e+003,2.433853e+001
1.970484e+003,2.382141e+001
1.971449e+003,2.346899e+001
1.972413e+003,2.360638e+001
1.973377e+003,2.406958e+001
1.974341e+003,2.464844e+001
1.975306e+003,2.488205e+001
1.976270e+003,2.363062e+001
1.977234e+003,2.164835e+001
1.978198e+003,2.142612e+001
1.979162e+003,2.267053e+001
1.980127e+003,2.290466e+001
1.981091e+003,2.189911e+001
1.982055e+003,2.201624e+001
1.983019e+003,2.401212e+001
1.983984e+003,2.510306e+001
1.984948e+003,2.347580e+001
1.985912e+003,2.170993e+001
1.986876e+003,2.306836e+001
1.987841e+003,2.609341e+001
1.988805e+003,2.646323e+001
1.989769e+003,2.389224e+001
1.990733e+003,2.326892e+001
1.991698e+003,2.578806e+001
1.992662e+003,2.739191e+001
1.993626e+003,2.670880e+001
1.994590e+003,2.544281e+001
1.995554e+003,2.403897e+001
1.996519e+003,2.353012e+001
1.997483e+003,2.520337e+001
1.998447e+003,2.764041e+001
1.999411e+003,2.850977e+001
2.000376e+003,2.796075e+001
2.001340e+003,2.722302e+001
2.002304e+003,2.611307e+001
2.003268e+003,2.516302e+001
2.004233e+003,2.445056e+001
2.005197e+003,2.384509e+001
2.006161e+003,2.373230e+001
2.007125e+003,2.393466e+001
2.008089e+003,2.402509e+001
2.009054e+003,2.419232e+001
2.010018e+003,2.486761e+001
2.010982e+003,2.587842e+001
2.011946e+003,2.667731e+001
2.012911e+003,2.700214e+001
2.013875e+003,2.692630e+001
2.014839e+003,2.663251e+001
2.015803e+003,2.607526e+001
2.016768e+003,2.514343e+001
2.017732e+003,2.391995e+001
2.018696e+003,2.184503e+001
2.019660e+003,1.937308e+001
2.020625e+003,1.879996e+001
2.021589e+003,2.029642e+001
2.022553e+003,2.232642e+001
2.023517e+003,2.429935e+001
2.024481e+003,2.580991e+001
2.025446e+003,2.670398e+001
2.026410e+003,2.733066e+001
2.027374e+003,2.789072e+001
2.028338e+003,2.832565e+001
2.029303e+003,2.904260e+001
2.030267e+003,3.012955e+001
2.031231e+003,3.022586e+001
2.032195e+003,2.906204e+001
2.033160e+003,2.780972e+001
2.034124e+003,2.672803e+001
2.035088e+003,2.569653e+001
2.036052e+003,2.450308e+001
2.037016e+003,2.409192e+001
2.037981e+003,2.516003e+001
2.038945e+003,2.713144e+001
2.039909e+003,2.976959e+001
2.040873e+003,3.279758e+001
2.041838e+003,3.246875e+001
2.042802e+003,2.646112e+001
2.043766e+003,2.264130e+001
2.044730e+003,2.407907e+001
2.045695e+003,2.547504e+001
2.046659e+003,2.381143e+001
2.047623e+003,2.256149e+001
2.048587e+003,2.503922e+001
2.049552e+003,2.833859e+001
2.050516e+003,2.852026e+001
2.051480e+003,2.657895e+001
2.052444e+003,2.597726e+001
2.053408e+003,2.758585e+001
2.054373e+003,2.992365e+001
2.055337e+003,3.258783e+001
2.056301e+003,3.412494e+001
2.057265e+003,3.322379e+001
2.058230e+003,3.101471e+001
2.059194e+003,2.775165e+001
2.060158e+003,2.506171e+001
2.061122e+003,2.531564e+001
2.062087e+003,2.708582e+001
2.063051e+003,2.757797e+001
2.064015e+003,2.654706e+001
2.064979e+003,2.503427e+001
2.065944e+003,2.351981e+001
2.066908e+003,2.270779e+001
2.067872e+003,2.324982e+001
2.068836e+003,2.434500e+001
2.069801e+003,2.520502e+001
2.070765e+003,2.595862e+001
2.071729e+003,2.655209e+001
2.072693e+003,2.670932e+001
2.073657e+003,2.592099e+001
2.074622e+003,2.447144e+001
2.075586e+003,2.370511e+001
2.076550e+003,2.408734e+001
2.077514e+003,2.516422e+001
2.078479e+003,2.655774e+001
2.079443e+003,2.755106e+001
2.080407e+003,2.725684e+001
2.081371e+003,2.594489e+001
2.082335e+003,2.454224e+001
2.083300e+003,2.316391e+001
2.084264e+003,2.259647e+001
2.085228e+003,2.302972e+001
2.086192e+003,2.272729e+001
2.087156e+003,2.085107e+001
2.088121e+003,1.934341e+001
2.089085e+003,1.949680e+001
2.090049e+003,2.005093e+001
2.091013e+003,1.980557e+001
2.091978e+003,1.909882e+001
2.092942e+003,1.858923e+001
2.093906e+003,1.829108e+001
2.094870e+003,1.810165e+001
2.095835e+003,1.798044e+001
2.096799e+003,1.830350e+001
2.097763e+003,1.971259e+001
2.098727e+003,2.028006e+001
2.099692e+003,1.880786e+001
2.100656e+003,1.770386e+001
2.101620e+003,1.844345e+001
2.102584e+003,1.926547e+001
2.103549e+003,1.865988e+001
2.104513e+003,1.765015e+001
2.105477e+003,1.759457e+001
2.106441e+003,1.812494e+001
2.107406e+003,1.858569e+001
2.108370e+003,1.931473e+001
2.109334e+003,2.038712e+001
2.110298e+003,2.255392e+001
2.111262e+003,2.344028e+001
2.112227e+003,2.124036e+001
2.113191e+003,1.852863e+001
2.114155e+003,1.659418e+001
2.115119e+003,1.557401e+001
2.116083e+003,1.575485e+001
2.117048e+003,1.670010e+001
2.118012e+003,1.775192e+001
2.118976e+003,1.885925e+001
2.119940e+003,1.970093e+001
2.120905e+003,1.988062e+001
2.121869e+003,1.931326e+001
2.122833e+003,1.667392e+001
2.123797e+003,1.492523e+001
2.124762e+003,1.715463e+001
2.125726e+003,2.000256e+001
2.126690e+003,2.042178e+001
2.127654e+003,1.950668e+001
2.128619e+003,1.879257e+001
2.129583e+003,1.841394e+001
2.130547e+003,1.814551e+001
2.131511e+003,1.798962e+001
2.132476e+003,1.766696e+001
2.133440e+003,1.670712e+001
2.134404e+003,1.596921e+001
2.135368e+003,1.655133e+001
2.136333e+003,1.701208e+001
2.137297e+003,1.678714e+001
2.138261e+003,1.620795e+001
2.139225e+003,1.480923e+001
2.140189e+003,1.336951e+001
2.141154e+003,1.265515e+001
2.142118e+003,1.251520e+001
2.143082e+003,1.353415e+001
2.144046e+003,1.586148e+001
2.145010e+003,1.744180e+001
2.145975e+003,1.651978e+001
2.146939e+003,1.482230e+001
2.147903e+003,1.408270e+001
2.148867e+003,1.394937e+001
2.149832e+003,1.449945e+001
2.150796e+003,1.565430e+001
2.151760e+003,1.690002e+001
2.152724e+003,1.757004e+001
2.153689e+003,1.707846e+001
2.154653e+003,1.589569e+001
2.155617e+003,1.454913e+001
2.156581e+003,1.338651e+001
2.157546e+003,1.386972e+001
2.158510e+003,1.683212e+001
2.159474e+003,1.906500e+001
2.160438e+003,1.696277e+001
2.161403e+003,1.322867e+001
2.162367e+003,1.142661e+001
2.163331e+003,1.104346e+001
2.164295e+003,1.110883e+001
2.165260e+003,1.135699e+001
2.166224e+003,1.139627e+001
2.167188e+003,1.151620e+001
2.168152e+003,1.317563e+001
2.169116e+003,1.635095e+001
2.170081e+003,1.822409e+001
2.171045e+003,1.704562e+001
2.172009e+003,1.468399e+001
2.172973e+003,1.322058e+001
2.173938e+003,1.263211e+001
2.174902e+003,1.274707e+001
2.175866e+003,1.296512e+001
2.176830e+003,1.211438e+001
2.177794e+003,1.052435e+001
2.178759e+003,9.206116e+000
2.179723e+003,8.299774e+000
2.180687e+003,7.612335e+000
2.181651e+003,7.124481e+000
2.182616e+003,6.950104e+000
2.183580e+003,7.284454e+000
2.184544e+003,8.958618e+000
2.185508e+003,1.305750e+001
2.186473e+003,1.654910e+001
2.187437e+003,1.356802e+001
2.188401e+003,7.262299e+000
2.189365e+003,4.973511e+000
2.190330e+003,5.829498e+000
2.191294e+003,6.779572e+000
2.192258e+003,7.219147e+000
2.193222e+003,6.695007e+000
2.194187e+003,5.351929e+000
2.195151e+003,4.598572e+000
2.196115e+003,5.110779e+000
2.197079e+003,6.003510e+000
2.198043e+003,6.466095e+000
2.199008e+003,6.633026e+000
2.199972e+003,6.946960e+000
2.200936e+003,7.402649e+000
2.201900e+003,7.487122e+000
2.202865e+003,6.919220e+000
2.203829e+003,5.223511e+000
2.204793e+003,3.196686e+000
2.205757e+003,3.481110e+000
2.206721e+003,5.999542e+000
2.207686e+003,7.137634e+000
2.208650e+003,5.433350e+000
2.209614e+003,4.276581e+000
2.210578e+003,6.786987e+000
2.211543e+003,1.023093e+001
2.212507e+003,9.637573e+000
2.213471e+003,6.428619e+000
2.214435e+003,5.454803e+000
2.215400e+003,6.214539e+000
2.216364e+003,5.403412e+000
2.217328e+003,3.569519e+000
2.218292e+003,3.947235e+000
2.219257e+003,6.290894e+000
2.220221e+003,7.609955e+000
2.221185e+003,6.905426e+000
2.222149e+003,5.570496e+000
2.223114e+003,4.871918e+000
2.224078e+003,4.732666e+000
2.225042e+003,4.459076e+000
2.226006e+003,4.492432e+000
2.226970e+003,5.998077e+000
2.227935e+003,7.658569e+000
2.228899e+003,7.450867e+000
2.229863e+003,6.096649e+000
2.230827e+003,4.864746e+000
2.231792e+003,4.097687e+000
2.232756e+003,4.094818e+000
2.233720e+003,4.638214e+000
2.234684e+003,4.455994e+000
2.235648e+003,3.050964e+000
2.236613e+003,2.407288e+000
2.237577e+003,4.192230e+000
2.238541e+003,6.425873e+000
2.239505e+003,7.731140e+000
2.240470e+003,8.036896e+000
2.241434e+003,6.535095e+000
2.242398e+003,4.695007e+000
2.243362e+003,4.282837e+000
2.244327e+003,4.636627e+000
2.245291e+003,4.893677e+000
2.246255e+003,5.039398e+000
2.247219e+003,5.053101e+000
2.248184e+003,4.755280e+000
2.249148e+003,4.330109e+000
2.250112e+003,4.203522e+000
2.251076e+003,4.436951e+000
2.252041e+003,5.110229e+000
2.253005e+003,5.734467e+000
2.253969e+003,5.568512e+000
2.254933e+003,4.834137e+000
2.255897e+003,4.083008e+000
2.256862e+003,3.458405e+000
2.257826e+003,2.728210e+000
2.258790e+003,2.164581e+000
2.259754e+003,2.415039e+000
2.260719e+003,3.545441e+000
2.261683e+003,5.132935e+000
2.262647e+003,7.056335e+000
2.263611e+003,8.372559e+000
2.264575e+003,8.636627e+000
2.265540e+003,8.265778e+000
2.266504e+003,7.285492e+000
2.267468e+003,5.921936e+000
2.268432e+003,3.924957e+000
2.269397e+003,2.456268e+000
2.270361e+003,2.655731e+000
2.271325e+003,4.119934e+000
2.272289e+003,6.334900e+000
2.273254e+003,8.742249e+000
2.274218e+003,1.022836e+001
2.275182e+003,1.061890e+001
2.276146e+003,9.724304e+000
2.277111e+003,6.134949e+000
2.278075e+003,4.139984e+000
2.279039e+003,5.848114e+000
2.280003e+003,7.916229e+000
2.280968e+003,8.094177e+000
2.281932e+003,7.735565e+000
2.282896e+003,9.129669e+000
2.283860e+003,1.100461e+001
2.284824e+003,1.052429e+001
2.285789e+003,8.846375e+000
2.286753e+003,1.012305e+001
2.287717e+003,1.469376e+001
2.288681e+003,1.702997e+001
2.289646e+003,1.477197e+001
2.290610e+003,1.314496e+001
2.291574e+003,1.363138e+001
2.292538e+003,1.416104e+001
2.293502e+003,1.419113e+001
2.294467e+003,1.397409e+001
2.295431e+003,1.237814e+001
2.296395e+003,1.167267e+001
2.297359e+003,1.556860e+001
2.298324e+003,2.104181e+001
2.299288e+003,2.136707e+001
2.300252e+003,1.714584e+001
2.301216e+003,1.603394e+001
2.302181e+003,1.955240e+001
2.303145e+003,2.021365e+001
2.304109e+003,1.635300e+001
2.305073e+003,1.598978e+001
2.306038e+003,2.097290e+001
2.307002e+003,2.350232e+001
2.307966e+003,2.084918e+001
2.308930e+003,1.831555e+001
2.309895e+003,1.930783e+001
2.310859e+003,2.152744e+001
2.311823e+003,2.192819e+001
2.312787e+003,2.114215e+001
2.313751e+003,2.177856e+001
2.314716e+003,2.355875e+001
2.315680e+003,2.324536e+001
2.316644e+003,2.155496e+001
2.317608e+003,2.376202e+001
2.318573e+003,2.924710e+001
2.319537e+003,3.180002e+001
2.320501e+003,3.071445e+001
2.321465e+003,2.980032e+001
2.322429e+003,3.062463e+001
2.323394e+003,3.320856e+001
2.324358e+003,3.756332e+001
2.325322e+003,4.274655e+001
2.326286e+003,4.830508e+001
2.327251e+003,5.251541e+001
2.328215e+003,5.193967e+001
2.329179e+003,4.939655e+001
2.330143e+003,4.905518e+001
2.331108e+003,4.989102e+001
2.332072e+003,5.004669e+001
2.333036e+003,4.935190e+001
2.334000e+003,4.823624e+001
2.334965e+003,4.716141e+001
2.335929e+003,4.609851e+001
2.336893e+003,4.512109e+001
2.337857e+003,4.642758e+001
2.338822e+003,5.215115e+001
2.339786e+003,5.743753e+001
2.340750e+003,5.813937e+001
2.341714e+003,5.819644e+001
2.342678e+003,6.070197e+001
2.343643e+003,6.326019e+001
2.344607e+003,6.367929e+001
2.345571e+003,6.361502e+001
2.346535e+003,6.470676e+001
2.347500e+003,6.666779e+001
2.348464e+003,6.884616e+001
2.349428e+003,7.117926e+001
2.350392e+003,7.356302e+001
2.351356e+003,7.577649e+001
2.352321e+003,7.854361e+001
2.353285e+003,8.284082e+001
2.354249e+003,8.613458e+001
2.355213e+003,8.718170e+001
2.356178e+003,8.899545e+001
2.357142e+003,9.283075e+001
2.358106e+003,9.700635e+001
2.359070e+003,1.005351e+002
2.360035e+003,1.035712e+002
2.360999e+003,1.064704e+002
2.361963e+003,1.093088e+002
2.362927e+003,1.118700e+002
2.363892e+003,1.140962e+002
2.364856e+003,1.163385e+002
2.365820e+003,1.185386e+002
2.366784e+003,1.196626e+002
2.367749e+003,1.197299e+002
2.368713e+003,1.209058e+002
2.369677e+003,1.235155e+002
2.370641e+003,1.267619e+002
2.371605e+003,1.303476e+002
2.372570e+003,1.341725e+002
2.373534e+003,1.380525e+002
2.374498e+003,1.419590e+002
2.375462e+003,1.462039e+002
2.376427e+003,1.499132e+002
2.377391e+003,1.507665e+002
2.378355e+003,1.503244e+002
2.379319e+003,1.515349e+002
2.380283e+003,1.543059e+002
2.381248e+003,1.595038e+002
2.382212e+003,1.654149e+002
2.383176e+003,1.678033e+002
2.384140e+003,1.669253e+002
2.385105e+003,1.662544e+002
2.386069e+003,1.666721e+002
2.387033e+003,1.659392e+002
2.387997e+003,1.632244e+002
2.388962e+003,1.625273e+002
2.389926e+003,1.664851e+002
2.390890e+003,1.696650e+002
2.391854e+003,1.695687e+002
2.392819e+003,1.695572e+002
2.393783e+003,1.720089e+002
2.394747e+003,1.750566e+002
2.395711e+003,1.765472e+002
2.396676e+003,1.768823e+002
2.397640e+003,1.774206e+002
2.398604e+003,1.783652e+002
2.399568e+003,1.792621e+002
2.400532e+003,1.801990e+002
2.401497e+003,1.809353e+002
2.402461e+003,1.809616e+002
2.403425e+003,1.815107e+002
2.404389e+003,1.826835e+002
2.405354e+003,1.828420e+002
2.406318e+003,1.820195e+002
2.407282e+003,1.815681e+002
2.408246e+003,1.817716e+002
2.409210e+003,1.830971e+002
2.410175e+003,1.857378e+002
2.411139e+003,1.886546e+002
2.412103e+003,1.909985e+002
2.413067e+003,1.925921e+002
2.414032e+003,1.931249e+002
2.414996e+003,1.931696e+002
2.415960e+003,1.932119e+002
2.416924e+003,1.934539e+002
2.417889e+003,1.956152e+002
2.418853e+003,1.987112e+002
2.419817e+003,1.998095e+002
2.420781e+003,1.990875e+002
2.421746e+003,1.974222e+002
2.422710e+003,1.955551e+002
2.423674e+003,1.963809e+002
2.424638e+003,2.012554e+002
2.425603e+003,2.056190e+002
2.426567e+003,2.069620e+002
2.427531e+003,2.068006e+002
2.428495e+003,2.047930e+002
2.429459e+003,2.027672e+002
2.430424e+003,2.016479e+002
2.431388e+003,2.016053e+002
2.432352e+003,2.033399e+002
2.433316e+003,2.047879e+002
2.434281e+003,2.041257e+002
2.435245e+003,2.019633e+002
2.436209e+003,1.989914e+002
2.437173e+003,1.957946e+002
2.438137e+003,1.942329e+002
2.439102e+003,1.939515e+002
2.440066e+003,1.927700e+002
2.441030e+003,1.909309e+002
2.441994e+003,1.904784e+002
2.442959e+003,1.915209e+002
2.443923e+003,1.918409e+002
2.444887e+003,1.909040e+002
2.445851e+003,1.899325e+002
2.446816e+003,1.895763e+002
2.447780e+003,1.879892e+002
2.448744e+003,1.835213e+002
2.449708e+003,1.792178e+002
2.450673e+003,1.795197e+002
2.451637e+003,1.810646e+002
2.452601e+003,1.774826e+002
2.453565e+003,1.722385e+002
2.454530e+003,1.718084e+002
2.455494e+003,1.730381e+002
2.456458e+003,1.699667e+002
2.457422e+003,1.652424e+002
2.458386e+003,1.636812e+002
2.459351e+003,1.643121e+002
2.460315e+003,1.646479e+002
2.461279e+003,1.647138e+002
2.462243e+003,1.637778e+002
2.463208e+003,1.606337e+002
2.464172e+003,1.588649e+002
2.465136e+003,1.610652e+002
2.466100e+003,1.604150e+002
2.467064e+003,1.543947e+002
2.468029e+003,1.502635e+002
2.468993e+003,1.511203e+002
2.469957e+003,1.513167e+002
2.470921e+003,1.470753e+002
2.471886e+003,1.428858e+002
2.472850e+003,1.433014e+002
2.473814e+003,1.459770e+002
2.474778e+003,1.467843e+002
2.475743e+003,1.462282e+002
2.476707e+003,1.457166e+002
2.477671e+003,1.447645e+002
2.478635e+003,1.428701e+002
2.479600e+003,1.407802e+002
2.480564e+003,1.401159e+002
2.481528e+003,1.404493e+002
2.482492e+003,1.391077e+002
2.483457e+003,1.363067e+002
2.484421e+003,1.359402e+002
2.485385e+003,1.387665e+002
2.486349e+003,1.400786e+002
2.487313e+003,1.377288e+002
2.488278e+003,1.356597e+002
2.489242e+003,1.356236e+002
2.490206e+003,1.358558e+002
2.491170e+003,1.351753e+002
2.492135e+003,1.342597e+002
2.493099e+003,1.345941e+002
2.494063e+003,1.347213e+002
2.495027e+003,1.333863e+002
2.495991e+003,1.317594e+002
2.496956e+003,1.305654e+002
2.497920e+003,1.296033e+002
2.498884e+003,1.294478e+002
2.499848e+003,1.302682e+002
2.500813e+003,1.306570e+002
2.501777e+003,1.306165e+002
2.502741e+003,1.308001e+002
2.503705e+003,1.309470e+002
2.504670e+003,1.311518e+002
2.505634e+003,1.315755e+002
2.506598e+003,1.325755e+002
2.507562e+003,1.336962e+002
2.508527e+003,1.323009e+002
2.509491e+003,1.280694e+002
2.510455e+003,1.263374e+002
2.511419e+003,1.305693e+002
2.512384e+003,1.342408e+002
2.513348e+003,1.321826e+002
2.514312e+003,1.301357e+002
2.515276e+003,1.314225e+002
2.516240e+003,1.327192e+002
2.517205e+003,1.319000e+002
2.518169e+003,1.307092e+002
2.519133e+003,1.305966e+002
2.520097e+003,1.306825e+002
2.521062e+003,1.299090e+002
2.522026e+003,1.292011e+002
2.522990e+003,1.303443e+002
2.523954e+003,1.326302e+002
2.524918e+003,1.328575e+002
2.525883e+003,1.311676e+002
2.526847e+003,1.299445e+002
2.527811e+003,1.293955e+002
2.528775e+003,1.310460e+002
2.529740e+003,1.342202e+002
2.530704e+003,1.357073e+002
2.531668e+003,1.350658e+002
2.532632e+003,1.335274e+002
2.533597e+003,1.316501e+002
2.534561e+003,1.295070e+002
2.535525e+003,1.269258e+002
2.536489e+003,1.254445e+002
2.537454e+003,1.266216e+002
2.538418e+003,1.283520e+002
2.539382e+003,1.305136e+002
2.540346e+003,1.312650e+002
2.541311e+003,1.289677e+002
2.542275e+003,1.263108e+002
2.543239e+003,1.246703e+002
2.544203e+003,1.242063e+002
2.545167e+003,1.250596e+002
2.546132e+003,1.265875e+002
2.547096e+003,1.276700e+002
2.548060e+003,1.277355e+002
2.549024e+003,1.265625e+002
2.549989e+003,1.247792e+002
2.550953e+003,1.240905e+002
2.551917e+003,1.245085e+002
2.552881e+003,1.238770e+002
2.553845e+003,1.218876e+002
2.554810e+003,1.197167e+002
2.555774e+003,1.178623e+002
2.556738e+003,1.167956e+002
2.557702e+003,1.167258e+002
2.558667e+003,1.172591e+002
2.559631e+003,1.178298e+002
2.560595e+003,1.177523e+002
2.561559e+003,1.177523e+002
2.562524e+003,1.177988e+002
2.563488e+003,1.178933e+002
2.564452e+003,1.174078e+002
2.565416e+003,1.146112e+002
2.566381e+003,1.121696e+002
2.567345e+003,1.120662e+002
2.568309e+003,1.125465e+002
2.569273e+003,1.122980e+002
2.570238e+003,1.113373e+002
2.571202e+003,1.095967e+002
2.572166e+003,1.084053e+002
2.573130e+003,1.101708e+002
2.574094e+003,1.125898e+002
2.575059e+003,1.114615e+002
2.576023e+003,1.082301e+002
2.576987e+003,1.059603e+002
2.577951e+003,1.046008e+002
2.578916e+003,1.019481e+002
2.579880e+003,9.875958e+001
2.580844e+003,9.751929e+001
2.581808e+003,9.819128e+001
2.582772e+003,1.000425e+002
2.583737e+003,1.033475e+002
2.584701e+003,1.032559e+002
2.585665e+003,9.735669e+001
2.586629e+003,9.464490e+001
2.587594e+003,9.635934e+001
2.588558e+003,9.626712e+001
2.589522e+003,9.308179e+001
2.590486e+003,9.167960e+001
2.591451e+003,9.336752e+001
2.592415e+003,9.350427e+001
2.593379e+003,9.004367e+001
2.594343e+003,8.683792e+001
2.595308e+003,8.647110e+001
2.596272e+003,8.652249e+001
2.597236e+003,8.506747e+001
2.598200e+003,8.446021e+001
2.599165e+003,8.769940e+001
2.600129e+003,9.043384e+001
2.601093e+003,8.828888e+001
2.602057e+003,8.428381e+001
2.603021e+003,8.079831e+001
2.603986e+003,7.846411e+001
2.604950e+003,7.773956e+001
2.605914e+003,7.815610e+001
2.606878e+003,7.881958e+001
2.607843e+003,7.967209e+001
2.608807e+003,8.065524e+001
2.609771e+003,8.132312e+001
2.610735e+003,7.888449e+001
2.611699e+003,7.460434e+001
2.612664e+003,7.373816e+001
2.613628e+003,7.582230e+001
2.614592e+003,7.898340e+001
2.615556e+003,8.175787e+001
2.616521e+003,8.102536e+001
2.617485e+003,7.717535e+001
2.618449e+003,7.498761e+001
2.619413e+003,7.634879e+001
2.620378e+003,7.770581e+001
2.621342e+003,7.643753e+001
2.622306e+003,7.507455e+001
2.623270e+003,7.405939e+001
2.624235e+003,7.384995e+001
2.625199e+003,7.572351e+001
2.626163e+003,7.656567e+001
2.627127e+003,7.472574e+001
2.628092e+003,7.307910e+001
2.629056e+003,7.330957e+001
2.630020e+003,7.287955e+001
2.630984e+003,6.961084e+001
2.631948e+003,6.679373e+001
2.632913e+003,6.854666e+001
2.633877e+003,7.170374e+001
2.634841e+003,7.296152e+001
2.635805e+003,7.270908e+001
2.636770e+003,7.266455e+001
2.637734e+003,7.254550e+001
2.638698e+003,7.036783e+001
2.639662e+003,6.787457e+001
2.640626e+003,6.732428e+001
2.641591e+003,6.777863e+001
2.642555e+003,6.818567e+001
2.643519e+003,6.874506e+001
2.644483e+003,6.984116e+001
2.645448e+003,7.125012e+001
2.646412e+003,7.044141e+001
2.647376e+003,6.804819e+001
2.648340e+003,6.548737e+001
2.649305e+003,6.335803e+001
2.650269e+003,6.289877e+001
2.651233e+003,6.359634e+001
2.652197e+003,6.476184e+001
2.653162e+003,6.614694e+001
2.654126e+003,6.651663e+001
2.655090e+003,6.550705e+001
2.656054e+003,6.497916e+001
2.657019e+003,6.535886e+001
2.657983e+003,6.506235e+001
2.658947e+003,6.417252e+001
2.659911e+003,6.317075e+001
2.660875e+003,6.203375e+001
2.661840e+003,6.123898e+001
2.662804e+003,6.090359e+001
2.663768e+003,6.097943e+001
2.664732e+003,6.142697e+001
2.665697e+003,6.129495e+001
2.666661e+003,5.965512e+001
2.667625e+003,5.826587e+001
2.668589e+003,5.926883e+001
2.669553e+003,5.986880e+001
2.670518e+003,5.827527e+001
2.671482e+003,5.662070e+001
2.672446e+003,5.583670e+001
2.673410e+003,5.577383e+001
2.674375e+003,5.638715e+001
2.675339e+003,5.712186e+001
2.676303e+003,5.747464e+001
2.677267e+003,5.726288e+001
2.678232e+003,5.661288e+001
2.679196e+003,5.547006e+001
2.680160e+003,5.310263e+001
2.681124e+003,5.090045e+001
2.682089e+003,5.163742e+001
2.683053e+003,5.312082e+001
2.684017e+003,5.294397e+001
2.684981e+003,5.217282e+001
2.685946e+003,5.271121e+001
2.686910e+003,5.378061e+001
2.687874e+003,5.193018e+001
2.688838e+003,4.762411e+001
2.689802e+003,4.693961e+001
2.690767e+003,5.019446e+001
2.691731e+003,5.129800e+001
2.692695e+003,5.017770e+001
2.693659e+003,4.908542e+001
2.694624e+003,4.756274e+001
2.695588e+003,4.639694e+001
2.696552e+003,4.555905e+001
2.697516e+003,4.415308e+001
2.698480e+003,4.259201e+001
2.699445e+003,4.133459e+001
2.700409e+003,4.036221e+001
2.701373e+003,4.084317e+001
2.702337e+003,4.309952e+001
2.703302e+003,4.336700e+001
2.704266e+003,4.031082e+001
2.705230e+003,3.835211e+001
2.706194e+003,3.828772e+001
2.707159e+003,3.823871e+001
2.708123e+003,3.692642e+001
2.709087e+003,3.560614e+001
2.710051e+003,3.508377e+001
2.711016e+003,3.563004e+001
2.711980e+003,3.734369e+001
2.712944e+003,3.864633e+001
2.713908e+003,3.756067e+001
2.714873e+003,3.547162e+001
2.715837e+003,3.513693e+001
2.716801e+003,3.456299e+001
2.717765e+003,3.233344e+001
2.718729e+003,3.154202e+001
2.719694e+003,3.240732e+001
2.720658e+003,3.355679e+001
2.721622e+003,3.548965e+001
2.722586e+003,3.579678e+001
2.723551e+003,3.232254e+001
2.724515e+003,2.889746e+001
2.725479e+003,3.037610e+001
2.726443e+003,3.332458e+001
2.727407e+003,3.268146e+001
2.728372e+003,3.090054e+001
2.729336e+003,2.937714e+001
2.730300e+003,2.849988e+001
2.731264e+003,2.991360e+001
2.732229e+003,3.075342e+001
2.733193e+003,2.868002e+001
2.734157e+003,2.636172e+001
2.735121e+003,2.574078e+001
2.736086e+003,2.605832e+001
2.737050e+003,2.673837e+001
2.738014e+003,2.719769e+001
2.738978e+003,2.666885e+001
2.739943e+003,2.568341e+001
2.740907e+003,2.419067e+001
2.741871e+003,2.285220e+001
2.742835e+003,2.328888e+001
2.743800e+003,2.479877e+001
2.744764e+003,2.575806e+001
2.745728e+003,2.592697e+001
2.746692e+003,2.645743e+001
2.747656e+003,2.730453e+001
2.748621e+003,2.657126e+001
2.749585e+003,2.466782e+001
2.750549e+003,2.292807e+001
2.751513e+003,2.085025e+001
2.752478e+003,2.126068e+001
2.753442e+003,2.372534e+001
2.754406e+003,2.511908e+001
2.755370e+003,2.539252e+001
2.756334e+003,2.481244e+001
2.757299e+003,2.358636e+001
2.758263e+003,2.269299e+001
2.759227e+003,2.254507e+001
2.760191e+003,2.296576e+001
2.761156e+003,2.417255e+001
2.762120e+003,2.450931e+001
2.763084e+003,2.333075e+001
2.764048e+003,2.245221e+001
2.765013e+003,2.185352e+001
2.765977e+003,2.270334e+001
2.766941e+003,2.493460e+001
2.767905e+003,2.504715e+001
2.768870e+003,2.282617e+001
2.769834e+003,2.123508e+001
2.770798e+003,2.070932e+001
2.771762e+003,2.014346e+001
2.772727e+003,1.990717e+001
2.773691e+003,1.909610e+001
2.774655e+003,1.736337e+001
2.775619e+003,1.840741e+001
2.776583e+003,2.052756e+001
2.777548e+003,2.139780e+001
2.778512e+003,2.219461e+001
2.779476e+003,2.256781e+001
2.780440e+003,2.277377e+001
2.781405e+003,2.285043e+001
2.782369e+003,2.151630e+001
2.783333e+003,2.006631e+001
2.784297e+003,2.101096e+001
2.785261e+003,2.180533e+001
2.786226e+003,2.026477e+001
2.787190e+003,1.983536e+001
2.788154e+003,2.224991e+001
2.789118e+003,2.379285e+001
2.790083e+003,2.374030e+001
2.791047e+003,2.250186e+001
2.792011e+003,2.001950e+001
2.792975e+003,1.821338e+001
2.793940e+003,1.821518e+001
2.794904e+003,1.877200e+001
2.795868e+003,1.998889e+001
2.796832e+003,2.042493e+001
2.797797e+003,1.648349e+001
2.798761e+003,1.420004e+001
2.799725e+003,1.870618e+001
2.800689e+003,2.294809e+001
2.801654e+003,2.194678e+001
2.802618e+003,2.035004e+001
2.803582e+003,2.173483e+001
2.804546e+003,2.221469e+001
2.805510e+003,1.905673e+001
2.806475e+003,1.674683e+001
2.807439e+003,1.715414e+001
2.808403e+003,1.779657e+001
2.809367e+003,2.134161e+001
2.810332e+003,2.354642e+001
2.811296e+003,1.956314e+001
2.812260e+003,1.670334e+001
2.813224e+003,1.811322e+001
2.814188e+003,1.911166e+001
2.815153e+003,1.863205e+001
2.816117e+003,1.817151e+001
2.817081e+003,1.818149e+001
2.818045e+003,1.806207e+001
2.819010e+003,1.760419e+001
2.819974e+003,1.789896e+001
2.820938e+003,2.017371e+001
2.821902e+003,2.170657e+001
2.822867e+003,2.019919e+001
2.823831e+003,1.788385e+001
2.824795e+003,1.698907e+001
2.825759e+003,1.683612e+001
2.826724e+003,1.590213e+001
2.827688e+003,1.454169e+001
2.828652e+003,1.325330e+001
2.829616e+003,1.246359e+001
2.830581e+003,1.388544e+001
2.831545e+003,1.585233e+001
2.832509e+003,1.579776e+001
2.833473e+003,1.506244e+001
2.834438e+003,1.297534e+001
2.835402e+003,1.088696e+001
2.836366e+003,1.178473e+001
2.837330e+003,1.273148e+001
2.838294e+003,1.048950e+001
2.839259e+003,8.312134e+000
2.840223e+003,9.380768e+000
2.841187e+003,1.194821e+001
2.842151e+003,1.381888e+001
2.843115e+003,1.401071e+001
2.844080e+003,1.076215e+001
2.845044e+003,8.260986e+000
2.846008e+003,1.240405e+001
2.846972e+003,1.759155e+001
2.847937e+003,1.625189e+001
2.848901e+003,1.210437e+001
2.849865e+003,1.087109e+001
2.850829e+003,1.167709e+001
2.851794e+003,1.274594e+001
2.852758e+003,1.368948e+001
2.853722e+003,1.391800e+001
2.854686e+003,1.331552e+001
2.855651e+003,1.233316e+001
2.856615e+003,1.109848e+001
2.857579e+003,8.505615e+000
2.858543e+003,6.695831e+000
2.859508e+003,8.091766e+000
2.860472e+003,1.053043e+001
2.861436e+003,1.201117e+001
2.862400e+003,1.259033e+001
2.863365e+003,1.245221e+001
2.864329e+003,1.218692e+001
2.865293e+003,1.180780e+001
2.866257e+003,1.119592e+001
2.867221e+003,1.128946e+001
2.868186e+003,1.135806e+001
2.869150e+003,1.062537e+001
2.870114e+003,1.045108e+001
2.871078e+003,1.207431e+001
2.872042e+003,1.344614e+001
2.873007e+003,1.228055e+001
2.873971e+003,1.051453e+001
2.874935e+003,1.164633e+001
2.875899e+003,1.422214e+001
2.876864e+003,1.333963e+001
2.877828e+003,1.071155e+001
2.878792e+003,9.353607e+000
2.879756e+003,8.791046e+000
2.880721e+003,9.285065e+000
2.881685e+003,1.000159e+001
2.882649e+003,1.039212e+001
2.883613e+003,1.047729e+001
2.884578e+003,9.658783e+000
2.885542e+003,9.000854e+000
2.886506e+003,1.071838e+001
2.887470e+003,1.297690e+001
2.888435e+003,1.163409e+001
2.889399e+003,8.943787e+000
2.890363e+003,7.247131e+000
2.891327e+003,6.088287e+000
2.892292e+003,5.884583e+000
2.893256e+003,5.952240e+000
2.894220e+003,5.935638e+000
2.895184e+003,5.282043e+000
2.896148e+003,3.165771e+000
2.897113e+003,1.064941e+000
2.898077e+003,1.070526e+000
2.899041e+003,2.463684e+000
2.900005e+003,5.081940e+000
2.900969e+003,6.768768e+000
2.901934e+003,3.468048e+000
2.902898e+003,0.000000e+000
2.903862e+003,1.631714e+000
2.904826e+003,4.389557e+000
2.905791e+003,5.158539e+000
2.906755e+003,5.628082e+000
2.907719e+003,7.254425e+000
2.908683e+003,7.734894e+000
2.909648e+003,4.065735e+000
2.910612e+003,1.655884e-001
2.911576e+003,1.210419e+000
2.912540e+003,3.455627e+000
2.913505e+003,4.547211e+000
2.914469e+003,4.669586e+000
2.915433e+003,2.740417e+000
2.916397e+003,2.493835e+000
2.917362e+003,6.345459e+000
2.918326e+003,9.335052e+000
2.919290e+003,7.604706e+000
2.920254e+003,4.823456e+000
2.921219e+003,4.818451e+000
2.922183e+003,5.415344e+000
2.923147e+003,3.341553e+000
2.924111e+003,2.453308e+000
2.925075e+003,6.650177e+000
2.926040e+003,9.352631e+000
2.927004e+003,8.472168e+000
2.927968e+003,7.228790e+000
2.928932e+003,6.910583e+000
2.929896e+003,6.986023e+000
2.930861e+003,7.139404e+000
2.931825e+003,6.909302e+000
2.932789e+003,6.339111e+000
2.933753e+003,5.776062e+000
2.934718e+003,3.099518e+000
2.935682e+003,2.265106e+000
2.936646e+003,5.558563e+000
2.937610e+003,7.925934e+000
2.938575e+003,8.226135e+000
2.939539e+003,8.870850e+000
2.940503e+003,1.028003e+001
2.941467e+003,1.058307e+001
2.942432e+003,8.987823e+000
2.943396e+003,6.870789e+000
2.944360e+003,4.717316e+000
2.945324e+003,4.123383e+000
2.946289e+003,5.754181e+000
2.947253e+003,6.762604e+000
2.948217e+003,6.781586e+000
2.949181e+003,5.232422e+000
2.950146e+003,2.565735e+000
2.951110e+003,2.852966e+000
2.952074e+003,6.569427e+000
2.953038e+003,8.662415e+000
2.954002e+003,7.350159e+000
2.954967e+003,6.198395e+000
2.955931e+003,5.703949e+000
2.956895e+003,5.447113e+000
2.957859e+003,5.568329e+000
2.958823e+003,5.213318e+000
2.959788e+003,4.532196e+000
2.960752e+003,3.862885e+000
2.961716e+003,3.342346e+000
2.962680e+003,3.774689e+000
2.963645e+003,5.031372e+000
2.964609e+003,5.788757e+000
2.965573e+003,6.209320e+000
2.966537e+003,5.939972e+000
2.967502e+003,4.316040e+000
2.968466e+003,4.580719e+000
2.969430e+003,6.370972e+000
2.970394e+003,7.766937e+000
2.971359e+003,8.476898e+000
2.972323e+003,7.140747e+000
2.973287e+003,4.936737e+000
2.974251e+003,5.046722e+000
2.975216e+003,6.891541e+000
2.976180e+003,7.755432e+000
2.977144e+003,7.900940e+000
2.978108e+003,8.272644e+000
2.979073e+003,8.619415e+000
2.980037e+003,7.529480e+000
2.981001e+003,6.225586e+000
2.981965e+003,7.353210e+000
2.982929e+003,8.738007e+000
2.983894e+003,6.564972e+000
2.984858e+003,3.305206e+000
2.985822e+003,2.400818e+000
2.986786e+003,3.339752e+000
2.987750e+003,5.628448e+000
2.988715e+003,8.173859e+000
2.989679e+003,8.875061e+000
2.990643e+003,8.418732e+000
2.991607e+003,6.143127e+000
2.992572e+003,4.083008e+000
2.993536e+003,4.463715e+000
2.994500e+003,6.053192e+000
2.995464e+003,8.658112e+000
2.996429e+003,1.022064e+001
2.997393e+003,8.623169e+000
2.998357e+003,6.431030e+000
2.999321e+003,6.597076e+000
3.000286e+003,7.459595e+000
3.001250e+003,7.737366e+000
3.002214e+003,7.809021e+000
3.003178e+003,8.278168e+000
3.004143e+003,8.190247e+000
3.005107e+003,7.113007e+000
3.006071e+003,5.839386e+000
3.007035e+003,4.727539e+000
3.008000e+003,4.013062e+000
3.008964e+003,3.941467e+000
3.009928e+003,4.988312e+000
3.010892e+003,8.287079e+000
3.011856e+003,9.875214e+000
3.012821e+003,7.593842e+000
3.013785e+003,6.855530e+000
3.014749e+003,8.021545e+000
3.015713e+003,8.519226e+000
3.016677e+003,8.304413e+000
3.017642e+003,8.564850e+000
3.018606e+003,9.343048e+000
3.019570e+003,9.166168e+000
3.020534e+003,7.693085e+000
3.021499e+003,7.680664e+000
3.022463e+003,8.987183e+000
3.023427e+003,9.768341e+000
3.024391e+003,1.000717e+001
3.025356e+003,1.070511e+001
3.026320e+003,1.207101e+001
3.027284e+003,1.155316e+001
3.028248e+003,9.808899e+000
3.029213e+003,1.078479e+001
3.030177e+003,1.311948e+001
3.031141e+003,1.093637e+001
3.032105e+003,5.762360e+000
3.033070e+003,3.901825e+000
3.034034e+003,4.971375e+000
3.034998e+003,6.945740e+000
3.035962e+003,8.922119e+000
3.036927e+003,9.920929e+000
3.037891e+003,1.019424e+001
3.038855e+003,1.044131e+001
3.039819e+003,1.092972e+001
3.040783e+003,1.107532e+001
3.041748e+003,1.073267e+001
3.042712e+003,1.029315e+001
3.043676e+003,1.067966e+001
3.044640e+003,1.428668e+001
3.045604e+003,1.746240e+001
3.046569e+003,1.611044e+001
3.047533e+003,1.466162e+001
3.048497e+003,1.533859e+001
3.049461e+003,1.544815e+001
3.050426e+003,1.399222e+001
3.051390e+003,1.297424e+001
3.052354e+003,1.383594e+001
3.053318e+003,1.512683e+001
3.054283e+003,1.475644e+001
3.055247e+003,1.461679e+001
3.056211e+003,1.720139e+001
3.057175e+003,1.917035e+001
3.058140e+003,2.031717e+001
3.059104e+003,2.002084e+001
3.060068e+003,1.816180e+001
3.061032e+003,1.685818e+001
3.061997e+003,1.668530e+001
3.062961e+003,1.667139e+001
3.063925e+003,1.661063e+001
3.064889e+003,1.698495e+001
3.065854e+003,1.762274e+001
3.066818e+003,1.820273e+001
3.067782e+003,1.873511e+001
3.068746e+003,1.755002e+001
3.069710e+003,1.575250e+001
3.070675e+003,1.625803e+001
3.071639e+003,1.790503e+001
3.072603e+003,1.843433e+001
3.073567e+003,1.836304e+001
3.074531e+003,1.899710e+001
3.075496e+003,1.976807e+001
3.076460e+003,1.981436e+001
3.077424e+003,1.927557e+001
3.078388e+003,1.743552e+001
3.079353e+003,1.580704e+001
3.080317e+003,1.691061e+001
3.081281e+003,1.855804e+001
3.082245e+003,1.884686e+001
3.083210e+003,1.950397e+001
3.084174e+003,2.174808e+001
3.085138e+003,2.277783e+001
3.086102e+003,1.958673e+001
3.087067e+003,1.639343e+001
3.088031e+003,1.803098e+001
3.088995e+003,2.006836e+001
3.089959e+003,2.157944e+001
3.090924e+003,2.154724e+001
3.091888e+003,1.933292e+001
3.092852e+003,1.935953e+001
3.093816e+003,2.221317e+001
3.094781e+003,2.399805e+001
3.095745e+003,2.350110e+001
3.096709e+003,2.314020e+001
3.097673e+003,2.406354e+001
3.098637e+003,2.417172e+001
3.099602e+003,2.253275e+001
3.100566e+003,2.311597e+001
3.101530e+003,2.564801e+001
3.102494e+003,2.651831e+001
3.103458e+003,2.562579e+001
3.104423e+003,2.257925e+001
3.105387e+003,1.921112e+001
3.106351e+003,2.099292e+001
3.107315e+003,2.570276e+001
3.108280e+003,2.572031e+001
3.109244e+003,2.268271e+001
3.110208e+003,2.319943e+001
3.111172e+003,2.499698e+001
3.112137e+003,2.335831e+001
3.113101e+003,2.160022e+001
3.114065e+003,2.365414e+001
3.115029e+003,2.656137e+001
3.115994e+003,2.782437e+001
3.116958e+003,2.810269e+001
3.117922e+003,2.815039e+001
3.118886e+003,2.793661e+001
3.119851e+003,2.752084e+001
3.120815e+003,2.695108e+001
3.121779e+003,2.557996e+001
3.122743e+003,2.508954e+001
3.123708e+003,2.600769e+001
3.124672e+003,2.647369e+001
3.125636e+003,2.619589e+001
3.126600e+003,2.600650e+001
3.127564e+003,2.633401e+001
3.128529e+003,2.737524e+001
3.129493e+003,2.885577e+001
3.130457e+003,2.944751e+001
3.131421e+003,2.898505e+001
3.132385e+003,3.019626e+001
3.133350e+003,3.265170e+001
3.134314e+003,3.194870e+001
3.135278e+003,2.941562e+001
3.136242e+003,2.899304e+001
3.137207e+003,3.018079e+001
3.138171e+003,3.079041e+001
3.139135e+003,3.081296e+001
3.140099e+003,3.078397e+001
3.141064e+003,3.114481e+001
3.142028e+003,3.348306e+001
3.142992e+003,3.591339e+001
3.143956e+003,3.572565e+001
3.144921e+003,3.416968e+001
3.145885e+003,3.072031e+001
3.146849e+003,2.844589e+001
3.147813e+003,2.879483e+001
3.148778e+003,3.107953e+001
3.149742e+003,3.484192e+001
3.150706e+003,3.695551e+001
3.151670e+003,3.466461e+001
3.152635e+003,3.260782e+001
3.153599e+003,3.415604e+001
3.154563e+003,3.545737e+001
3.155527e+003,3.553754e+001
3.156491e+003,3.642984e+001
3.157456e+003,3.792874e+001
3.158420e+003,3.698981e+001
3.159384e+003,3.428970e+001
3.160348e+003,3.315625e+001
3.161313e+003,3.377975e+001
3.162277e+003,3.480933e+001
3.163241e+003,3.627524e+001
3.164205e+003,3.538852e+001
3.165169e+003,3.338547e+001
3.166134e+003,3.526752e+001
3.167098e+003,3.819000e+001
3.168062e+003,3.728256e+001
3.169026e+003,3.599948e+001
3.169991e+003,3.770578e+001
3.170955e+003,3.993127e+001
3.171919e+003,4.070377e+001
3.172883e+003,4.036554e+001
3.173848e+003,3.923294e+001
3.174812e+003,3.804089e+001
3.175776e+003,3.636111e+001
3.176740e+003,3.644586e+001
3.177705e+003,3.902332e+001
3.178669e+003,4.122797e+001
3.179633e+003,4.243155e+001
3.180597e+003,4.299930e+001
3.181562e+003,4.303189e+001
3.182526e+003,4.336694e+001
3.183490e+003,4.483615e+001
3.184454e+003,4.518961e+001
3.185418e+003,4.351443e+001
3.186383e+003,4.423315e+001
3.187347e+003,4.622058e+001
3.188311e+003,4.549463e+001
3.189275e+003,4.342844e+001
3.190240e+003,4.028528e+001
3.191204e+003,3.826825e+001
3.192168e+003,4.178760e+001
3.193132e+003,4.655093e+001
3.194096e+003,4.621298e+001
3.195061e+003,4.372665e+001
3.196025e+003,4.299164e+001
3.196989e+003,4.231058e+001
3.197953e+003,3.896017e+001
3.198918e+003,3.867990e+001
3.199882e+003,4.432318e+001
3.200846e+003,4.858502e+001
3.201810e+003,4.874969e+001
3.202775e+003,4.806454e+001
3.203739e+003,4.825055e+001
3.204703e+003,4.816534e+001
3.205667e+003,4.722742e+001
3.206632e+003,4.738443e+001
3.207596e+003,4.841647e+001
3.208560e+003,4.817361e+001
3.209524e+003,4.715717e+001
3.210489e+003,4.653757e+001
3.211453e+003,4.636221e+001
3.212417e+003,4.705191e+001
3.213381e+003,4.771606e+001
3.214345e+003,4.654559e+001
3.215310e+003,4.454590e+001
3.216274e+003,4.388028e+001
3.217238e+003,4.449835e+001
3.218202e+003,4.617679e+001
3.219167e+003,4.789844e+001
3.220131e+003,4.955618e+001
3.221095e+003,5.033752e+001
3.222059e+003,5.007245e+001
3.223023e+003,5.064365e+001
3.223988e+003,5.258539e+001
3.224952e+003,5.410028e+001
3.225916e+003,5.420465e+001
3.226880e+003,5.429651e+001
3.227845e+003,5.486868e+001
3.228809e+003,5.372787e+001
3.229773e+003,5.144873e+001
3.230737e+003,5.160434e+001
3.231702e+003,5.361060e+001
3.232666e+003,5.551627e+001
3.233630e+003,5.643768e+001
3.234594e+003,5.557669e+001
3.235559e+003,5.388303e+001
3.236523e+003,5.232385e+001
3.237487e+003,5.120468e+001
3.238451e+003,5.008963e+001
3.239416e+003,4.995944e+001
3.240380e+003,5.425214e+001
3.241344e+003,5.688239e+001
3.242308e+003,5.478064e+001
3.243272e+003,5.332190e+001
3.244237e+003,5.431674e+001
3.245201e+003,5.602835e+001
3.246165e+003,5.734521e+001
3.247129e+003,5.771899e+001
3.248094e+003,5.681561e+001
3.249058e+003,5.587531e+001
3.250022e+003,5.555054e+001
3.250986e+003,5.506992e+001
3.251950e+003,5.449448e+001
3.252915e+003,5.476172e+001
3.253879e+003,5.566809e+001
3.254843e+003,5.748181e+001
3.255807e+003,5.931793e+001
3.256772e+003,6.005731e+001
3.257736e+003,5.974057e+001
3.258700e+003,5.824686e+001
3.259664e+003,5.739694e+001
3.260629e+003,5.882886e+001
3.261593e+003,6.154926e+001
3.262557e+003,6.525214e+001
3.263521e+003,6.585840e+001
3.264486e+003,6.323990e+001
3.265450e+003,6.276761e+001
3.266414e+003,6.565958e+001
3.267378e+003,6.685992e+001
3.268343e+003,6.429404e+001
3.269307e+003,6.208682e+001
3.270271e+003,6.061011e+001
3.271235e+003,6.293875e+001
3.272199e+003,6.715933e+001
3.273164e+003,6.770731e+001
3.274128e+003,6.603418e+001
3.275092e+003,6.324771e+001
3.276056e+003,6.144315e+001
3.277021e+003,6.274319e+001
3.277985e+003,6.527295e+001
3.278949e+003,6.729010e+001
3.279913e+003,6.843747e+001
3.280877e+003,6.782535e+001
3.281842e+003,6.738260e+001
3.282806e+003,6.759686e+001
3.283770e+003,6.773801e+001
3.284734e+003,6.769641e+001
3.285699e+003,6.799976e+001
3.286663e+003,6.845349e+001
3.287627e+003,6.853622e+001
3.288591e+003,6.843958e+001
3.289556e+003,6.845587e+001
3.290520e+003,6.893860e+001
3.291484e+003,6.940451e+001
3.292448e+003,6.968326e+001
3.293413e+003,7.103732e+001
3.294377e+003,7.238629e+001
3.295341e+003,7.298111e+001
3.296305e+003,7.335794e+001
3.297270e+003,7.338831e+001
3.298234e+003,7.403159e+001
3.299198e+003,7.613193e+001
3.300162e+003,7.670798e+001
3.301126e+003,7.224008e+001
3.302091e+003,7.002036e+001
3.303055e+003,7.155414e+001
3.304019e+003,7.191830e+001
3.304983e+003,7.110504e+001
3.305948e+003,7.215393e+001
3.306912e+003,7.457849e+001
3.307876e+003,7.585309e+001
3.308840e+003,7.622601e+001
3.309804e+003,7.736349e+001
3.310769e+003,7.898224e+001
3.311733e+003,8.092136e+001
3.312697e+003,8.168643e+001
3.313661e+003,7.817807e+001
3.314626e+003,7.571573e+001
3.315590e+003,7.758939e+001
3.316554e+003,7.992230e+001
3.317518e+003,8.094925e+001
3.318483e+003,8.160797e+001
3.319447e+003,8.266534e+001
3.320411e+003,8.410217e+001
3.321375e+003,8.635516e+001
3.322340e+003,8.628500e+001
3.323304e+003,8.386978e+001
3.324268e+003,8.289429e+001
3.325232e+003,8.281686e+001
3.326197e+003,8.372223e+001
3.327161e+003,8.488971e+001
3.328125e+003,8.445261e+001
3.329089e+003,8.429968e+001
3.330053e+003,8.612781e+001
3.331018e+003,8.824576e+001
3.331982e+003,8.924139e+001
3.332946e+003,8.988431e+001
3.333910e+003,9.079257e+001
3.334875e+003,9.112970e+001
3.335839e+003,9.056271e+001
3.336803e+003,8.914841e+001
3.337767e+003,8.733682e+001
3.338731e+003,8.820166e+001
3.339696e+003,9.155908e+001
3.340660e+003,9.277969e+001
3.341624e+003,9.224890e+001
3.342588e+003,9.119275e+001
3.343553e+003,8.987845e+001
3.344517e+003,8.913898e+001
3.345481e+003,8.987408e+001
3.346445e+003,9.473370e+001
3.347410e+003,9.863538e+001
3.348374e+003,9.868454e+001
3.349338e+003,9.752661e+001
3.350302e+003,9.702109e+001
3.351267e+003,9.732977e+001
3.352231e+003,9.907660e+001
3.353195e+003,9.879718e+001
3.354159e+003,9.516397e+001
3.355124e+003,9.750949e+001
3.356088e+003,1.034926e+002
3.357052e+003,1.038010e+002
3.358016e+003,1.004709e+002
3.358980e+003,9.803659e+001
3.359945e+003,9.713049e+001
3.360909e+003,9.804520e+001
3.361873e+003,9.912015e+001
3.362837e+003,9.765613e+001
3.363802e+003,9.655377e+001
3.364766e+003,9.873846e+001
3.365730e+003,1.014399e+002
3.366694e+003,1.039579e+002
3.367658e+003,1.048385e+002
3.368623e+003,1.043860e+002
3.369587e+003,1.047072e+002
3.370551e+003,1.058575e+002
3.371515e+003,1.046044e+002
3.372480e+003,1.013677e+002
3.373444e+003,1.010671e+002
3.374408e+003,1.024666e+002
3.375372e+003,1.008683e+002
3.376337e+003,1.000992e+002
3.377301e+003,1.032819e+002
3.378265e+003,1.067723e+002
3.379229e+003,1.102386e+002
3.380194e+003,1.106953e+002
3.381158e+003,1.067647e+002
3.382122e+003,1.031280e+002
3.383086e+003,1.016647e+002
3.384051e+003,1.012973e+002
3.385015e+003,1.031544e+002
3.385979e+003,1.048570e+002
3.386943e+003,1.053821e+002
3.387907e+003,1.034649e+002
3.388872e+003,1.009034e+002
3.389836e+003,1.015812e+002
3.390800e+003,1.039372e+002
3.391764e+003,1.060750e+002
3.392729e+003,1.060208e+002
3.393693e+003,1.011371e+002
3.394657e+003,9.814838e+001
3.395621e+003,1.025344e+002
3.396585e+003,1.065514e+002
3.397550e+003,1.090376e+002
3.398514e+003,1.090777e+002
3.399478e+003,1.078053e+002
3.400442e+003,1.091488e+002
3.401407e+003,1.122370e+002
3.402371e+003,1.123913e+002
3.403335e+003,1.105702e+002
3.404299e+003,1.082085e+002
3.405264e+003,1.063179e+002
3.406228e+003,1.065869e+002
3.407192e+003,1.073397e+002
3.408156e+003,1.089373e+002
3.409121e+003,1.086790e+002
3.410085e+003,1.062870e+002
3.411049e+003,1.069411e+002
3.412013e+003,1.111408e+002
3.412978e+003,1.121552e+002
3.413942e+003,1.091981e+002
3.414906e+003,1.090676e+002
3.415870e+003,1.114174e+002
3.416834e+003,1.115120e+002
3.417799e+003,1.111489e+002
3.418763e+003,1.131438e+002
3.419727e+003,1.146093e+002
3.420691e+003,1.143473e+002
3.421656e+003,1.139283e+002
3.422620e+003,1.144237e+002
3.423584e+003,1.138530e+002
3.424548e+003,1.096899e+002
3.425512e+003,1.082003e+002
3.426477e+003,1.097401e+002
3.427441e+003,1.128336e+002
3.428405e+003,1.165417e+002
3.429369e+003,1.182711e+002
3.430334e+003,1.182981e+002
3.431298e+003,1.178360e+002
3.432262e+003,1.175652e+002
3.433226e+003,1.172787e+002
3.434191e+003,1.165489e+002
3.435155e+003,1.153213e+002
3.436119e+003,1.161089e+002
3.437083e+003,1.216382e+002
3.438048e+003,1.218466e+002
3.439012e+003,1.162280e+002
3.439976e+003,1.156749e+002
3.440940e+003,1.199214e+002
3.441905e+003,1.205109e+002
3.442869e+003,1.185175e+002
3.443833e+003,1.191924e+002
3.444797e+003,1.206259e+002
3.445761e+003,1.205346e+002
3.446726e+003,1.198310e+002
3.447690e+003,1.177426e+002
3.448654e+003,1.161304e+002
3.449618e+003,1.145638e+002
3.450583e+003,1.132388e+002
3.451547e+003,1.133429e+002
3.452511e+003,1.170835e+002
3.453475e+003,1.239537e+002
3.454439e+003,1.255480e+002
3.455404e+003,1.226108e+002
3.456368e+003,1.228049e+002
3.457332e+003,1.243079e+002
3.458296e+003,1.238233e+002
3.459261e+003,1.232224e+002
3.460225e+003,1.235760e+002
3.461189e+003,1.234525e+002
3.462153e+003,1.226202e+002
3.463118e+003,1.210609e+002
3.464082e+003,1.184630e+002
3.465046e+003,1.191290e+002
3.466010e+003,1.234884e+002
3.466975e+003,1.238200e+002
3.467939e+003,1.216125e+002
3.468903e+003,1.203165e+002
3.469867e+003,1.204138e+002
3.470832e+003,1.235088e+002
3.471796e+003,1.260916e+002
3.472760e+003,1.253967e+002
3.473724e+003,1.240291e+002
3.474688e+003,1.239078e+002
3.475653e+003,1.237756e+002
3.476617e+003,1.240181e+002
3.477581e+003,1.257176e+002
3.478545e+003,1.280847e+002
3.479510e+003,1.293808e+002
3.480474e+003,1.293577e+002
3.481438e+003,1.281540e+002
3.482402e+003,1.276313e+002
3.483366e+003,1.295511e+002
3.484331e+003,1.310618e+002
3.485295e+003,1.279218e+002
3.486259e+003,1.253359e+002
3.487223e+003,1.270985e+002
3.488188e+003,1.272344e+002
3.489152e+003,1.260725e+002
3.490116e+003,1.276429e+002
3.491080e+003,1.308471e+002
3.492045e+003,1.305248e+002
3.493009e+003,1.285148e+002
3.493973e+003,1.307204e+002
3.494937e+003,1.344393e+002
3.495902e+003,1.332273e+002
3.496866e+003,1.304226e+002
3.497830e+003,1.301696e+002
3.498794e+003,1.297245e+002
3.499759e+003,1.282568e+002
3.500723e+003,0.000000e+000
