9.974011e+001,3.358210e+002
1.007043e+002,3.381859e+002
1.016686e+002,3.401458e+002
1.026328e+002,3.410999e+002
1.035970e+002,3.414807e+002
1.045613e+002,3.420460e+002
1.055255e+002,3.423221e+002
1.064897e+002,3.412234e+002
1.074540e+002,3.369963e+002
1.084182e+002,3.328531e+002
1.093824e+002,3.285255e+002
1.103467e+002,3.240740e+002
1.113109e+002,3.200250e+002
1.122751e+002,3.186724e+002
1.132394e+002,3.184089e+002
1.142036e+002,3.179139e+002
1.151678e+002,3.164119e+002
1.161321e+002,3.145371e+002
1.170963e+002,3.153114e+002
1.180605e+002,3.172462e+002
1.190248e+002,3.182485e+002
1.199890e+002,3.163127e+002
1.209532e+002,3.110193e+002
1.219175e+002,3.074773e+002
1.228817e+002,3.061679e+002
1.238459e+002,3.061779e+002
1.248102e+002,3.057544e+002
1.257744e+002,3.040821e+002
1.267386e+002,3.025304e+002
1.277029e+002,3.007896e+002
1.286671e+002,2.988781e+002
1.296313e+002,2.972006e+002
1.305956e+002,2.969485e+002
1.315598e+002,2.967975e+002
1.325240e+002,2.963881e+002
1.334883e+002,2.955924e+002
1.344525e+002,2.946573e+002
1.354167e+002,2.938604e+002
1.363810e+002,2.929163e+002
1.373452e+002,2.913952e+002
1.383094e+002,2.889217e+002
1.392737e+002,2.852813e+002
1.402379e+002,2.830611e+002
1.412021e+002,2.824333e+002
1.421664e+002,2.826789e+002
1.431306e+002,2.828573e+002
1.440948e+002,2.839458e+002
1.450591e+002,2.840172e+002
1.460233e+002,2.817021e+002
1.469875e+002,2.778465e+002
1.479518e+002,2.748083e+002
1.489160e+002,2.755714e+002
1.498802e+002,2.764837e+002
1.508445e+002,2.766801e+002
1.518087e+002,2.760240e+002
1.527729e+002,2.751920e+002
1.537372e+002,2.749601e+002
1.547014e+002,2.744678e+002
1.556656e+002,2.731747e+002
1.566299e+002,2.708286e+002
1.575941e+002,2.675997e+002
1.585583e+002,2.643954e+002
1.595226e+002,2.607331e+002
1.604868e+002,2.576992e+002
1.614510e+002,2.565646e+002
1.624153e+002,2.589945e+002
1.633795e+002,2.592162e+002
1.643438e+002,2.558338e+002
1.653080e+002,2.509536e+002
1.662722e+002,2.474395e+002
1.672365e+002,2.476017e+002
1.682007e+002,2.488467e+002
1.691649e+002,2.509112e+002
1.701292e+002,2.533278e+002
1.710934e+002,2.553860e+002
1.720576e+002,2.549377e+002
1.730219e+002,2.529877e+002
1.739861e+002,2.507296e+002
1.749503e+002,2.484126e+002
1.759146e+002,2.457943e+002
1.768788e+002,2.439459e+002
1.778430e+002,2.441665e+002
1.788073e+002,2.446747e+002
1.797715e+002,2.445194e+002
1.807357e+002,2.433508e+002
1.817000e+002,2.427296e+002
1.826642e+002,2.418766e+002
1.836284e+002,2.410291e+002
1.845927e+002,2.406111e+002
1.855569e+002,2.413500e+002
1.865211e+002,2.409579e+002
1.874854e+002,2.378823e+002
1.884496e+002,2.338706e+002
1.894138e+002,2.311580e+002
1.903781e+002,2.330396e+002
1.913423e+002,2.376844e+002
1.923065e+002,2.396065e+002
1.932708e+002,2.381406e+002
1.942350e+002,2.340390e+002
1.951992e+002,2.304268e+002
1.961635e+002,2.274774e+002
1.971277e+002,2.258060e+002
1.980919e+002,2.261977e+002
1.990562e+002,2.286265e+002
2.000204e+002,2.303831e+002
2.009846e+002,2.306483e+002
2.019489e+002,2.304314e+002
2.029131e+002,2.297139e+002
2.038773e+002,2.285728e+002
2.048416e+002,2.281605e+002
2.058058e+002,2.303835e+002
2.067700e+002,2.330746e+002
2.077343e+002,2.346881e+002
2.086985e+002,2.340950e+002
2.096627e+002,2.316122e+002
2.106270e+002,2.288288e+002
2.115912e+002,2.258674e+002
2.125554e+002,2.233368e+002
2.135197e+002,2.219121e+002
2.144839e+002,2.220564e+002
2.154481e+002,2.218556e+002
2.164124e+002,2.214888e+002
2.173766e+002,2.210929e+002
2.183408e+002,2.207323e+002
2.193051e+002,2.198226e+002
2.202693e+002,2.196231e+002
2.212335e+002,2.207133e+002
2.221978e+002,2.225316e+002
2.231620e+002,2.240750e+002
2.241262e+002,2.247892e+002
2.250904e+002,2.250426e+002
2.260547e+002,2.243447e+002
2.270189e+002,2.226740e+002
2.279831e+002,2.203786e+002
2.289474e+002,2.189274e+002
2.299116e+002,2.184415e+002
2.308758e+002,2.186260e+002
2.318401e+002,2.196542e+002
2.328043e+002,2.217002e+002
2.337685e+002,2.227045e+002
2.347328e+002,2.211103e+002
2.356970e+002,2.191368e+002
2.366612e+002,2.179739e+002
2.376255e+002,2.182010e+002
2.385897e+002,2.180131e+002
2.395539e+002,2.159733e+002
2.405182e+002,2.140009e+002
2.414824e+002,2.135664e+002
2.424466e+002,2.157096e+002
2.434109e+002,2.186405e+002
2.443751e+002,2.199116e+002
2.453393e+002,2.199420e+002
2.463036e+002,2.191599e+002
2.472678e+002,2.180377e+002
2.482320e+002,2.168533e+002
2.491963e+002,2.169028e+002
2.501605e+002,2.182474e+002
2.511247e+002,2.201198e+002
2.520890e+002,2.213720e+002
2.530532e+002,2.215128e+002
2.540174e+002,2.214760e+002
2.549817e+002,2.209552e+002
2.559459e+002,2.206364e+002
2.569102e+002,2.216781e+002
2.578744e+002,2.259073e+002
2.588386e+002,2.288385e+002
2.598029e+002,2.288994e+002
2.607671e+002,2.268092e+002
2.617313e+002,2.243083e+002
2.626956e+002,2.236513e+002
2.636598e+002,2.241938e+002
2.646240e+002,2.247769e+002
2.655883e+002,2.250116e+002
2.665525e+002,2.248982e+002
2.675167e+002,2.253816e+002
2.684810e+002,2.270744e+002
2.694452e+002,2.286659e+002
2.704094e+002,2.298809e+002
2.713737e+002,2.307149e+002
2.723379e+002,2.310248e+002
2.733021e+002,2.291257e+002
2.742664e+002,2.277804e+002
2.752306e+002,2.286197e+002
2.761948e+002,2.320990e+002
2.771591e+002,2.353038e+002
2.781233e+002,2.359379e+002
2.790875e+002,2.357522e+002
2.800518e+002,2.354726e+002
2.810160e+002,2.354970e+002
2.819802e+002,2.357151e+002
2.829445e+002,2.362937e+002
2.839087e+002,2.370876e+002
2.848729e+002,2.375057e+002
2.858372e+002,2.370307e+002
2.868014e+002,2.353401e+002
2.877656e+002,2.349096e+002
2.887299e+002,2.359441e+002
2.896941e+002,2.371586e+002
2.906583e+002,2.376243e+002
2.916226e+002,2.371328e+002
2.925868e+002,2.371596e+002
2.935510e+002,2.384585e+002
2.945153e+002,2.400420e+002
2.954795e+002,2.408444e+002
2.964437e+002,2.398419e+002
2.974080e+002,2.381882e+002
2.983722e+002,2.372112e+002
2.993364e+002,2.370990e+002
3.003007e+002,2.382453e+002
3.012649e+002,2.411362e+002
3.022291e+002,2.454956e+002
3.031934e+002,2.473193e+002
3.041576e+002,2.462444e+002
3.051218e+002,2.439045e+002
3.060861e+002,2.429492e+002
3.070503e+002,2.442214e+002
3.080145e+002,2.449420e+002
3.089788e+002,2.453106e+002
3.099430e+002,2.456031e+002
3.109072e+002,2.461157e+002
3.118715e+002,2.470568e+002
3.128357e+002,2.484384e+002
3.137999e+002,2.500327e+002
3.147642e+002,2.513540e+002
3.157284e+002,2.518830e+002
3.166926e+002,2.511023e+002
3.176569e+002,2.501209e+002
3.186211e+002,2.499870e+002
3.195853e+002,2.506856e+002
3.205496e+002,2.518552e+002
3.215138e+002,2.527645e+002
3.224780e+002,2.530197e+002
3.234423e+002,2.535081e+002
3.244065e+002,2.550015e+002
3.253707e+002,2.570539e+002
3.263350e+002,2.577037e+002
3.272992e+002,2.545249e+002
3.282634e+002,2.526012e+002
3.292277e+002,2.530285e+002
3.301919e+002,2.553864e+002
3.311561e+002,2.579901e+002
3.321204e+002,2.593620e+002
3.330846e+002,2.602772e+002
3.340488e+002,2.611161e+002
3.350131e+002,2.619859e+002
3.359773e+002,2.629454e+002
3.369415e+002,2.645343e+002
3.379058e+002,2.665766e+002
3.388700e+002,2.673826e+002
3.398342e+002,2.664181e+002
3.407985e+002,2.639869e+002
3.417627e+002,2.619566e+002
3.427269e+002,2.586396e+002
3.436912e+002,2.568555e+002
3.446554e+002,2.582453e+002
3.456196e+002,2.624689e+002
3.465839e+002,2.660728e+002
3.475481e+002,2.672221e+002
3.485123e+002,2.679818e+002
3.494765e+002,2.684977e+002
3.504408e+002,2.688022e+002
3.514050e+002,2.688965e+002
3.523692e+002,2.693388e+002
3.533335e+002,2.699035e+002
3.542977e+002,2.701469e+002
3.552619e+002,2.700403e+002
3.562262e+002,2.698476e+002
3.571904e+002,2.703421e+002
3.581546e+002,2.713016e+002
3.591189e+002,2.723123e+002
3.600831e+002,2.732584e+002
3.610473e+002,2.740674e+002
3.620116e+002,2.745545e+002
3.629758e+002,2.750511e+002
3.639400e+002,2.754184e+002
3.649043e+002,2.755507e+002
3.658685e+002,2.754375e+002
3.668327e+002,2.751974e+002
3.677970e+002,2.747021e+002
3.687612e+002,2.745065e+002
3.697254e+002,2.748543e+002
3.706897e+002,2.757774e+002
3.716539e+002,2.771184e+002
3.726181e+002,2.786371e+002
3.735824e+002,2.799854e+002
3.745466e+002,2.809996e+002
3.755108e+002,2.818326e+002
3.764751e+002,2.825855e+002
3.774393e+002,2.826514e+002
3.784035e+002,2.808302e+002
3.793678e+002,2.793711e+002
3.803320e+002,2.789339e+002
3.812962e+002,2.794989e+002
3.822605e+002,2.802961e+002
3.832247e+002,2.809533e+002
3.841889e+002,2.816966e+002
3.851532e+002,2.825773e+002
3.861174e+002,2.835534e+002
3.870816e+002,2.845321e+002
3.880459e+002,2.855985e+002
3.890101e+002,2.865104e+002
3.899743e+002,2.871120e+002
3.909386e+002,2.874233e+002
3.919028e+002,2.874456e+002
3.928670e+002,2.867783e+002
3.938313e+002,2.845444e+002
3.947955e+002,2.830116e+002
3.957597e+002,2.829684e+002
3.967240e+002,2.842332e+002
3.976882e+002,2.854887e+002
3.986524e+002,2.870541e+002
3.996167e+002,2.885304e+002
4.005809e+002,2.893659e+002
4.015451e+002,2.896198e+002
4.025094e+002,2.898511e+002
4.034736e+002,2.912706e+002
4.044378e+002,2.929158e+002
4.054021e+002,2.937974e+002
4.063663e+002,2.938114e+002
4.073305e+002,2.931532e+002
4.082948e+002,2.921082e+002
4.092590e+002,2.908412e+002
4.102232e+002,2.908135e+002
4.111875e+002,2.924255e+002
4.121517e+002,2.947306e+002
4.131159e+002,2.955429e+002
4.140802e+002,2.937487e+002
4.150444e+002,2.930978e+002
4.160086e+002,2.938634e+002
4.169729e+002,2.954713e+002
4.179371e+002,2.969780e+002
4.189013e+002,2.974174e+002
4.198656e+002,2.970748e+002
4.208298e+002,2.966808e+002
4.217940e+002,2.962570e+002
4.227583e+002,2.956669e+002
4.237225e+002,2.946872e+002
4.246867e+002,2.943724e+002
4.256510e+002,2.957180e+002
4.266152e+002,2.982539e+002
4.275794e+002,3.010016e+002
4.285437e+002,3.029069e+002
4.295079e+002,3.037562e+002
4.304721e+002,3.044800e+002
4.314364e+002,3.057318e+002
4.324006e+002,3.069890e+002
4.333648e+002,3.073060e+002
4.343291e+002,3.054607e+002
4.352933e+002,3.044724e+002
4.362575e+002,3.057792e+002
4.372218e+002,3.078238e+002
4.381860e+002,3.094651e+002
4.391502e+002,3.101227e+002
4.401145e+002,3.101585e+002
4.410787e+002,3.101665e+002
4.420429e+002,3.103508e+002
4.430072e+002,3.106931e+002
4.439714e+002,3.110379e+002
4.449356e+002,3.110728e+002
4.458999e+002,3.105303e+002
4.468641e+002,3.094088e+002
4.478283e+002,3.087668e+002
4.487926e+002,3.096004e+002
4.497568e+002,3.123864e+002
4.507210e+002,3.150139e+002
4.516853e+002,3.165422e+002
4.526495e+002,3.173481e+002
4.536137e+002,3.177215e+002
4.545780e+002,3.178179e+002
4.555422e+002,3.175014e+002
4.565064e+002,3.157749e+002
4.574707e+002,3.146013e+002
4.584349e+002,3.153447e+002
4.593991e+002,3.178613e+002
4.603634e+002,3.207607e+002
4.613276e+002,3.213008e+002
4.622918e+002,3.199821e+002
4.632561e+002,3.185068e+002
4.642203e+002,3.171255e+002
4.651845e+002,3.159205e+002
4.661488e+002,3.151503e+002
4.671130e+002,3.154617e+002
4.680772e+002,3.148293e+002
4.690415e+002,3.124225e+002
4.700057e+002,3.094510e+002
4.709699e+002,3.080711e+002
4.719342e+002,3.099239e+002
4.728984e+002,3.122683e+002
4.738626e+002,3.144993e+002
4.748269e+002,3.160825e+002
4.757911e+002,3.162682e+002
4.767553e+002,3.142195e+002
4.777196e+002,3.111515e+002
4.786838e+002,3.097762e+002
4.796480e+002,3.096245e+002
4.806123e+002,3.100923e+002
4.815765e+002,3.108806e+002
4.825407e+002,3.128485e+002
4.835050e+002,3.130901e+002
4.844692e+002,3.108712e+002
4.854334e+002,3.081026e+002
4.863977e+002,3.054511e+002
4.873619e+002,3.023719e+002
4.883261e+002,3.001509e+002
4.892904e+002,3.011444e+002
4.902546e+002,3.030227e+002
4.912188e+002,3.041106e+002
4.921831e+002,3.037191e+002
4.931473e+002,3.026976e+002
4.941115e+002,3.030945e+002
4.950758e+002,3.039544e+002
4.960400e+002,3.040450e+002
4.970042e+002,3.030697e+002
4.979685e+002,3.016186e+002
4.989327e+002,3.016084e+002
4.998969e+002,3.033294e+002
5.008612e+002,3.042043e+002
5.018254e+002,3.033630e+002
5.027896e+002,3.012824e+002
5.037539e+002,2.995670e+002
5.047181e+002,2.990008e+002
5.056823e+002,2.992337e+002
5.066466e+002,3.005309e+002
5.076108e+002,3.023686e+002
5.085750e+002,3.039689e+002
5.095393e+002,3.045792e+002
5.105035e+002,3.042912e+002
5.114677e+002,3.037578e+002
5.124320e+002,3.034160e+002
5.133962e+002,3.037683e+002
5.143605e+002,3.051519e+002
5.153247e+002,3.072782e+002
5.162889e+002,3.081329e+002
5.172532e+002,3.073952e+002
5.182174e+002,3.071981e+002
5.191816e+002,3.092540e+002
5.201459e+002,3.139665e+002
5.211101e+002,3.179207e+002
5.220743e+002,3.195837e+002
5.230386e+002,3.212391e+002
5.240028e+002,3.245123e+002
5.249670e+002,3.298396e+002
5.259313e+002,3.359460e+002
5.268955e+002,3.413934e+002
5.278597e+002,3.456325e+002
5.288240e+002,3.479106e+002
5.297882e+002,3.485738e+002
5.307524e+002,3.488990e+002
5.317167e+002,3.513656e+002
5.326809e+002,3.568247e+002
5.336451e+002,3.629930e+002
5.346094e+002,3.693144e+002
5.355736e+002,3.752376e+002
5.365378e+002,3.803198e+002
5.375021e+002,3.849728e+002
5.384663e+002,3.897890e+002
5.394305e+002,3.948763e+002
5.403948e+002,3.998993e+002
5.413590e+002,4.043750e+002
5.423232e+002,4.077768e+002
5.432875e+002,4.105440e+002
5.442517e+002,4.139044e+002
5.452159e+002,4.180885e+002
5.461802e+002,4.231493e+002
5.471444e+002,4.285999e+002
5.481086e+002,4.331667e+002
5.490729e+002,4.332630e+002
5.500371e+002,4.304153e+002
5.510013e+002,4.285616e+002
5.519656e+002,4.293064e+002
5.529298e+002,4.323149e+002
5.538940e+002,4.352325e+002
5.548583e+002,4.372769e+002
5.558225e+002,4.383524e+002
5.567867e+002,4.390121e+002
5.577510e+002,4.390526e+002
5.587152e+002,4.377812e+002
5.596794e+002,4.343244e+002
5.606437e+002,4.310722e+002
5.616079e+002,4.289550e+002
5.625721e+002,4.276444e+002
5.635364e+002,4.267827e+002
5.645006e+002,4.260839e+002
5.654648e+002,4.250784e+002
5.664291e+002,4.226822e+002
5.673933e+002,4.198051e+002
5.683575e+002,4.178634e+002
5.693218e+002,4.175587e+002
5.702860e+002,4.184019e+002
5.712502e+002,4.173295e+002
5.722145e+002,4.139083e+002
5.731787e+002,4.096345e+002
5.741429e+002,4.049588e+002
5.751072e+002,4.003925e+002
5.760714e+002,3.967350e+002
5.770356e+002,3.948958e+002
5.779999e+002,3.936762e+002
5.789641e+002,3.921411e+002
5.799283e+002,3.899706e+002
5.808926e+002,3.869913e+002
5.818568e+002,3.830076e+002
5.828210e+002,3.783915e+002
5.837853e+002,3.756760e+002
5.847495e+002,3.751706e+002
5.857137e+002,3.749939e+002
5.866780e+002,3.731217e+002
5.876422e+002,3.689275e+002
5.886064e+002,3.652420e+002
5.895707e+002,3.616176e+002
5.905349e+002,3.589353e+002
5.914991e+002,3.580706e+002
5.924634e+002,3.587611e+002
5.934276e+002,3.586392e+002
5.943918e+002,3.556588e+002
5.953560e+002,3.522086e+002
5.963203e+002,3.489325e+002
5.972845e+002,3.459479e+002
5.982487e+002,3.432325e+002
5.992130e+002,3.411465e+002
6.001772e+002,3.399861e+002
6.011414e+002,3.379402e+002
6.021057e+002,3.341661e+002
6.030699e+002,3.293913e+002
6.040341e+002,3.248330e+002
6.049984e+002,3.208940e+002
6.059626e+002,3.175646e+002
6.069268e+002,3.166344e+002
6.078911e+002,3.156890e+002
6.088553e+002,3.125671e+002
6.098195e+002,3.066545e+002
6.107838e+002,3.004854e+002
6.117480e+002,2.959996e+002
6.127122e+002,2.925942e+002
6.136765e+002,2.903430e+002
6.146407e+002,2.886309e+002
6.156049e+002,2.862397e+002
6.165692e+002,2.814304e+002
6.175334e+002,2.748764e+002
6.184976e+002,2.709419e+002
6.194619e+002,2.702873e+002
6.204261e+002,2.709530e+002
6.213903e+002,2.703882e+002
6.223546e+002,2.679324e+002
6.233188e+002,2.649971e+002
6.242830e+002,2.609940e+002
6.252473e+002,2.569844e+002
6.262115e+002,2.538631e+002
6.271757e+002,2.518078e+002
6.281400e+002,2.497353e+002
6.291042e+002,2.466075e+002
6.300684e+002,2.433943e+002
6.310327e+002,2.404234e+002
6.319969e+002,2.378429e+002
6.329611e+002,2.357971e+002
6.339254e+002,2.345694e+002
6.348896e+002,2.336625e+002
6.358538e+002,2.309470e+002
6.368181e+002,2.262495e+002
6.377823e+002,2.212341e+002
6.387465e+002,2.176910e+002
6.397108e+002,2.160752e+002
6.406750e+002,2.147321e+002
6.416392e+002,2.132452e+002
6.426035e+002,2.115527e+002
6.435677e+002,2.099534e+002
6.445319e+002,2.085077e+002
6.454962e+002,2.067001e+002
6.464604e+002,2.037054e+002
6.474246e+002,2.006135e+002
6.483889e+002,1.979233e+002
6.493531e+002,1.954999e+002
6.503173e+002,1.930439e+002
6.512816e+002,1.903666e+002
6.522458e+002,1.876335e+002
6.532100e+002,1.851420e+002
6.541743e+002,1.831592e+002
6.551385e+002,1.813145e+002
6.561027e+002,1.789787e+002
6.570670e+002,1.757793e+002
6.580312e+002,1.733736e+002
6.589954e+002,1.724510e+002
6.599597e+002,1.711042e+002
6.609239e+002,1.689239e+002
6.618881e+002,1.661831e+002
6.628524e+002,1.634383e+002
6.638166e+002,1.607153e+002
6.647808e+002,1.584408e+002
6.657451e+002,1.566956e+002
6.667093e+002,1.553396e+002
6.676735e+002,1.544538e+002
6.686378e+002,1.542188e+002
6.696020e+002,1.545607e+002
6.705662e+002,1.530500e+002
6.715305e+002,1.493806e+002
6.724947e+002,1.453615e+002
6.734589e+002,1.419259e+002
6.744232e+002,1.392389e+002
6.753874e+002,1.372018e+002
6.763516e+002,1.366821e+002
6.773159e+002,1.356240e+002
6.782801e+002,1.325334e+002
6.792443e+002,1.284537e+002
6.802086e+002,1.254545e+002
6.811728e+002,1.251953e+002
6.821370e+002,1.256223e+002
6.831013e+002,1.244280e+002
6.840655e+002,1.221529e+002
6.850297e+002,1.188720e+002
6.859940e+002,1.145287e+002
6.869582e+002,1.095906e+002
6.879224e+002,1.080628e+002
6.888867e+002,1.122752e+002
6.898509e+002,1.145610e+002
6.908151e+002,1.127619e+002
6.917794e+002,1.085821e+002
6.927436e+002,1.055215e+002
6.937078e+002,1.045403e+002
6.946721e+002,1.036240e+002
6.956363e+002,1.024872e+002
6.966005e+002,1.011198e+002
6.975648e+002,9.913128e+001
6.985290e+002,9.627316e+001
6.994932e+002,9.305058e+001
7.004575e+002,9.090445e+001
7.014217e+002,8.950581e+001
7.023859e+002,8.836026e+001
7.033502e+002,8.744096e+001
7.043144e+002,8.670712e+001
7.052786e+002,8.587096e+001
7.062429e+002,8.485578e+001
7.072071e+002,8.290469e+001
7.081713e+002,7.930833e+001
7.091356e+002,7.581812e+001
7.100998e+002,7.377808e+001
7.110640e+002,7.329183e+001
7.120283e+002,7.345071e+001
7.129925e+002,7.476871e+001
7.139567e+002,7.588846e+001
7.149210e+002,7.604465e+001
7.158852e+002,7.519089e+001
7.168494e+002,7.372760e+001
7.178137e+002,7.210726e+001
7.187779e+002,7.043935e+001
7.197421e+002,6.854005e+001
7.207064e+002,6.619144e+001
7.216706e+002,6.427836e+001
7.226348e+002,6.399118e+001
7.235991e+002,6.587858e+001
7.245633e+002,6.697317e+001
7.255275e+002,6.609322e+001
7.264918e+002,6.510194e+001
7.274560e+002,6.489691e+001
7.284202e+002,6.535825e+001
7.293845e+002,6.567587e+001
7.303487e+002,6.523615e+001
7.313129e+002,6.451244e+001
7.322772e+002,6.383706e+001
7.332414e+002,6.325138e+001
7.342056e+002,6.286801e+001
7.351699e+002,6.280611e+001
7.361341e+002,6.311203e+001
7.370983e+002,6.355454e+001
7.380626e+002,6.373629e+001
7.390268e+002,6.386553e+001
7.399910e+002,6.465620e+001
7.409553e+002,6.575990e+001
7.419195e+002,6.567870e+001
7.428837e+002,6.285682e+001
7.438480e+002,6.084257e+001
7.448122e+002,6.128637e+001
7.457764e+002,6.266165e+001
7.467407e+002,6.356919e+001
7.477049e+002,6.364375e+001
7.486691e+002,6.401027e+001
7.496334e+002,6.604661e+001
7.505976e+002,6.848247e+001
7.515618e+002,7.039368e+001
7.525261e+002,7.167212e+001
7.534903e+002,7.237041e+001
7.544545e+002,7.248273e+001
7.554188e+002,7.194789e+001
7.563830e+002,7.311283e+001
7.573472e+002,7.682552e+001
7.583115e+002,7.992389e+001
7.592757e+002,8.064093e+001
7.602399e+002,7.945143e+001
7.612042e+002,7.890825e+001
7.621684e+002,7.960549e+001
7.631326e+002,8.063857e+001
7.640969e+002,8.230293e+001
7.650611e+002,8.404252e+001
7.660253e+002,8.495210e+001
7.669896e+002,8.445507e+001
7.679538e+002,8.363286e+001
7.689180e+002,8.501752e+001
7.698823e+002,8.749337e+001
7.708465e+002,8.936919e+001
7.718107e+002,9.041716e+001
7.727750e+002,9.087120e+001
7.737392e+002,9.040619e+001
7.747034e+002,8.733663e+001
7.756677e+002,8.604889e+001
7.766319e+002,8.771581e+001
7.775961e+002,9.013959e+001
7.785604e+002,9.125093e+001
7.795246e+002,9.053392e+001
7.804888e+002,8.986185e+001
7.814531e+002,9.168167e+001
7.824173e+002,9.377110e+001
7.833815e+002,9.442163e+001
7.843458e+002,9.374313e+001
7.853100e+002,9.304848e+001
7.862742e+002,9.385611e+001
7.872385e+002,9.594705e+001
7.882027e+002,9.607355e+001
7.891669e+002,9.342686e+001
7.901312e+002,9.065482e+001
7.910954e+002,8.996422e+001
7.920596e+002,9.130927e+001
7.930239e+002,9.156430e+001
7.939881e+002,8.834816e+001
7.949523e+002,8.577773e+001
7.959166e+002,8.514351e+001
7.968808e+002,8.556548e+001
7.978450e+002,8.593355e+001
7.988093e+002,8.571912e+001
7.997735e+002,8.529433e+001
8.007377e+002,8.537489e+001
8.017020e+002,8.569176e+001
8.026662e+002,8.589194e+001
8.036304e+002,8.586971e+001
8.045947e+002,8.536600e+001
8.055589e+002,8.377940e+001
8.065231e+002,8.007076e+001
8.074874e+002,7.769287e+001
8.084516e+002,7.787628e+001
8.094158e+002,7.798096e+001
8.103801e+002,7.646738e+001
8.113443e+002,7.359100e+001
8.123085e+002,7.101404e+001
8.132728e+002,6.899602e+001
8.142370e+002,6.734993e+001
8.152012e+002,6.617758e+001
8.161655e+002,6.503407e+001
8.171297e+002,6.359576e+001
8.180939e+002,6.186220e+001
8.190582e+002,6.024362e+001
8.200224e+002,5.846875e+001
8.209866e+002,5.610344e+001
8.219509e+002,5.458232e+001
8.229151e+002,5.491260e+001
8.238793e+002,5.604781e+001
8.248436e+002,5.562071e+001
8.258078e+002,5.269939e+001
8.267720e+002,5.052934e+001
8.277363e+002,5.026715e+001
8.287005e+002,5.005612e+001
8.296647e+002,4.866479e+001
8.306290e+002,4.616852e+001
8.315932e+002,4.375159e+001
8.325574e+002,4.236122e+001
8.335217e+002,4.180095e+001
8.344859e+002,4.193033e+001
8.354501e+002,4.239279e+001
8.364144e+002,4.191344e+001
8.373786e+002,3.934662e+001
8.383428e+002,3.494670e+001
8.393071e+002,3.249710e+001
8.402713e+002,3.371994e+001
8.412355e+002,3.470781e+001
8.421998e+002,3.517232e+001
8.431640e+002,3.492078e+001
8.441282e+002,3.347136e+001
8.450925e+002,3.036455e+001
8.460567e+002,2.748579e+001
8.470209e+002,2.582957e+001
8.479852e+002,2.502933e+001
8.489494e+002,2.522934e+001
8.499136e+002,2.629062e+001
8.508779e+002,2.775641e+001
8.518421e+002,2.901639e+001
8.528063e+002,2.995572e+001
8.537706e+002,2.984219e+001
8.547348e+002,2.819200e+001
8.556990e+002,2.699756e+001
8.566633e+002,2.783958e+001
8.576275e+002,3.029832e+001
8.585917e+002,3.153227e+001
8.595560e+002,3.080550e+001
8.605202e+002,2.962901e+001
8.614844e+002,2.783658e+001
8.624487e+002,2.622762e+001
8.634129e+002,2.559219e+001
8.643771e+002,2.602301e+001
8.653414e+002,2.654556e+001
8.663056e+002,2.622957e+001
8.672698e+002,2.578963e+001
8.682341e+002,2.571880e+001
8.691983e+002,2.584308e+001
8.701625e+002,2.593541e+001
8.711268e+002,2.579214e+001
8.720910e+002,2.523198e+001
8.730552e+002,2.460114e+001
8.740195e+002,2.479733e+001
8.749837e+002,2.548463e+001
8.759479e+002,2.640633e+001
8.769122e+002,2.726663e+001
8.778764e+002,2.771263e+001
8.788406e+002,2.744009e+001
8.798049e+002,2.686073e+001
8.807691e+002,2.702010e+001
8.817333e+002,2.747226e+001
8.826976e+002,2.744537e+001
8.836618e+002,2.674889e+001
8.846260e+002,2.580783e+001
8.855903e+002,2.532768e+001
8.865545e+002,2.529077e+001
8.875187e+002,2.503500e+001
8.884830e+002,2.399324e+001
8.894472e+002,2.355904e+001
8.904114e+002,2.514877e+001
8.913757e+002,2.835724e+001
8.923399e+002,3.039236e+001
8.933041e+002,2.955440e+001
8.942684e+002,2.832442e+001
8.952326e+002,2.736221e+001
8.961968e+002,2.696326e+001
8.971611e+002,2.790556e+001
8.981253e+002,3.029271e+001
8.990895e+002,3.271587e+001
9.000538e+002,3.245209e+001
9.010180e+002,2.991287e+001
9.019822e+002,2.871669e+001
9.029465e+002,2.921138e+001
9.039107e+002,3.074588e+001
9.048749e+002,3.304474e+001
9.058392e+002,3.613553e+001
9.068034e+002,3.817873e+001
9.077676e+002,3.813272e+001
9.087319e+002,3.825023e+001
9.096961e+002,3.930701e+001
9.106603e+002,4.084123e+001
9.116246e+002,4.182726e+001
9.125888e+002,4.172081e+001
9.135530e+002,4.173640e+001
9.145173e+002,4.423167e+001
9.154815e+002,4.739200e+001
9.164457e+002,4.900327e+001
9.174100e+002,4.902554e+001
9.183742e+002,4.877234e+001
9.193384e+002,4.960379e+001
9.203027e+002,5.157132e+001
9.212669e+002,5.373227e+001
9.222311e+002,5.580156e+001
9.231954e+002,5.719582e+001
9.241596e+002,5.776788e+001
9.251238e+002,5.823869e+001
9.260881e+002,5.942273e+001
9.270523e+002,6.143623e+001
9.280165e+002,6.407487e+001
9.289808e+002,6.783780e+001
9.299450e+002,7.181595e+001
9.309092e+002,7.526140e+001
9.318735e+002,7.791742e+001
9.328377e+002,7.975438e+001
9.338019e+002,8.074319e+001
9.347662e+002,8.088713e+001
9.357304e+002,8.225102e+001
9.366946e+002,8.575929e+001
9.376589e+002,8.903662e+001
9.386231e+002,9.080975e+001
9.395873e+002,9.146808e+001
9.405516e+002,9.240488e+001
9.415158e+002,9.439362e+001
9.424800e+002,9.565117e+001
9.434443e+002,9.429387e+001
9.444085e+002,9.308977e+001
9.453727e+002,9.425331e+001
9.463370e+002,9.759857e+001
9.473012e+002,1.012212e+002
9.482654e+002,1.032556e+002
9.492297e+002,1.037913e+002
9.501939e+002,1.044975e+002
9.511581e+002,1.058367e+002
9.521224e+002,1.070683e+002
9.530866e+002,1.073987e+002
9.540508e+002,1.072247e+002
9.550151e+002,1.080092e+002
9.559793e+002,1.106182e+002
9.569435e+002,1.110780e+002
9.579078e+002,1.080316e+002
9.588720e+002,1.050530e+002
9.598362e+002,1.035040e+002
9.608005e+002,1.035185e+002
9.617647e+002,1.051328e+002
9.627289e+002,1.088191e+002
9.636932e+002,1.129122e+002
9.646574e+002,1.137810e+002
9.656216e+002,1.121191e+002
9.665859e+002,1.100222e+002
9.675501e+002,1.082848e+002
9.685143e+002,1.074426e+002
9.694786e+002,1.084937e+002
9.704428e+002,1.124118e+002
9.714070e+002,1.159426e+002
9.723713e+002,1.180223e+002
9.733355e+002,1.196549e+002
9.742997e+002,1.216087e+002
9.752640e+002,1.241031e+002
9.762282e+002,1.268994e+002
9.771924e+002,1.295777e+002
9.781567e+002,1.321029e+002
9.791209e+002,1.348863e+002
9.800851e+002,1.377424e+002
9.810494e+002,1.403224e+002
9.820136e+002,1.426744e+002
9.829778e+002,1.451761e+002
9.839421e+002,1.482442e+002
9.849063e+002,1.518472e+002
9.858705e+002,1.532299e+002
9.868348e+002,1.510505e+002
9.877990e+002,1.501831e+002
9.887632e+002,1.527336e+002
9.897275e+002,1.569712e+002
9.906917e+002,1.598200e+002
9.916559e+002,1.599512e+002
9.926202e+002,1.589257e+002
9.935844e+002,1.589786e+002
9.945486e+002,1.590901e+002
9.955129e+002,1.578004e+002
9.964771e+002,1.554462e+002
9.974413e+002,1.536630e+002
9.984056e+002,1.538674e+002
9.993698e+002,1.555855e+002
1.000334e+003,1.560980e+002
1.001298e+003,1.546023e+002
1.002263e+003,1.539388e+002
1.003227e+003,1.547677e+002
1.004191e+003,1.563292e+002
1.005155e+003,1.580035e+002
1.006119e+003,1.596994e+002
1.007084e+003,1.606051e+002
1.008048e+003,1.592942e+002
1.009012e+003,1.586996e+002
1.009976e+003,1.606321e+002
1.010941e+003,1.640402e+002
1.011905e+003,1.671823e+002
1.012869e+003,1.690707e+002
1.013833e+003,1.698633e+002
1.014798e+003,1.699077e+002
1.015762e+003,1.692517e+002
1.016726e+003,1.706665e+002
1.017690e+003,1.754234e+002
1.018654e+003,1.808605e+002
1.019619e+003,1.850279e+002
1.020583e+003,1.879393e+002
1.021547e+003,1.905481e+002
1.022511e+003,1.927485e+002
1.023476e+003,1.947770e+002
1.024440e+003,1.971944e+002
1.025404e+003,1.998310e+002
1.026368e+003,2.023426e+002
1.027333e+003,2.046781e+002
1.028297e+003,2.071562e+002
1.029261e+003,2.100459e+002
1.030225e+003,2.130996e+002
1.031190e+003,2.164568e+002
1.032154e+003,2.209865e+002
1.033118e+003,2.253500e+002
1.034082e+003,2.285094e+002
1.035047e+003,2.308167e+002
1.036011e+003,2.331292e+002
1.036975e+003,2.351471e+002
1.037939e+003,2.378085e+002
1.038903e+003,2.426235e+002
1.039868e+003,2.480622e+002
1.040832e+003,2.534111e+002
1.041796e+003,2.582136e+002
1.042760e+003,2.619182e+002
1.043725e+003,2.642235e+002
1.044689e+003,2.656726e+002
1.045653e+003,2.675639e+002
1.046617e+003,2.699074e+002
1.047582e+003,2.734202e+002
1.048546e+003,2.793491e+002
1.049510e+003,2.860242e+002
1.050474e+003,2.916924e+002
1.051438e+003,2.960728e+002
1.052403e+003,2.990891e+002
1.053367e+003,2.987785e+002
1.054331e+003,2.995092e+002
1.055295e+003,3.040936e+002
1.056260e+003,3.097589e+002
1.057224e+003,3.131729e+002
1.058188e+003,3.140624e+002
1.059152e+003,3.154737e+002
1.060117e+003,3.206462e+002
1.061081e+003,3.288512e+002
1.062045e+003,3.367516e+002
1.063009e+003,3.439924e+002
1.063974e+003,3.502647e+002
1.064938e+003,3.560819e+002
1.065902e+003,3.615309e+002
1.066866e+003,3.657362e+002
1.067830e+003,3.676067e+002
1.068795e+003,3.703264e+002
1.069759e+003,3.757079e+002
1.070723e+003,3.814408e+002
1.071687e+003,3.871859e+002
1.072652e+003,3.928276e+002
1.073616e+003,3.978708e+002
1.074580e+003,4.017989e+002
1.075544e+003,4.048325e+002
1.076509e+003,4.075842e+002
1.077473e+003,4.104974e+002
1.078437e+003,4.152189e+002
1.079401e+003,4.226117e+002
1.080365e+003,4.296558e+002
1.081330e+003,4.335342e+002
1.082294e+003,4.345966e+002
1.083258e+003,4.357826e+002
1.084222e+003,4.368835e+002
1.085187e+003,4.391521e+002
1.086151e+003,4.441684e+002
1.087115e+003,4.492975e+002
1.088079e+003,4.523493e+002
1.089043e+003,4.534750e+002
1.090008e+003,4.543925e+002
1.090972e+003,4.564415e+002
1.091936e+003,4.588597e+002
1.092900e+003,4.594290e+002
1.093865e+003,4.583734e+002
1.094829e+003,4.568768e+002
1.095793e+003,4.548493e+002
1.096757e+003,4.535929e+002
1.097722e+003,4.550145e+002
1.098686e+003,4.587901e+002
1.099650e+003,4.599038e+002
1.100614e+003,4.570536e+002
1.101578e+003,4.536129e+002
1.102543e+003,4.496475e+002
1.103507e+003,4.457881e+002
1.104471e+003,4.424931e+002
1.105435e+003,4.394694e+002
1.106400e+003,4.360594e+002
1.107364e+003,4.321702e+002
1.108328e+003,4.281995e+002
1.109292e+003,4.238992e+002
1.110257e+003,4.194894e+002
1.111221e+003,4.149409e+002
1.112185e+003,4.092607e+002
1.113149e+003,4.029514e+002
1.114114e+003,3.972752e+002
1.115078e+003,3.926179e+002
1.116042e+003,3.880526e+002
1.117006e+003,3.839275e+002
1.117970e+003,3.794802e+002
1.118935e+003,3.737536e+002
1.119899e+003,3.673267e+002
1.120863e+003,3.613538e+002
1.121827e+003,3.562890e+002
1.122792e+003,3.514479e+002
1.123756e+003,3.456997e+002
1.124720e+003,3.386492e+002
1.125684e+003,3.311101e+002
1.126649e+003,3.236089e+002
1.127613e+003,3.168107e+002
1.128577e+003,3.109306e+002
1.129541e+003,3.056420e+002
1.130505e+003,3.004309e+002
1.131470e+003,2.951257e+002
1.132434e+003,2.900427e+002
1.133398e+003,2.863766e+002
1.134362e+003,2.825234e+002
1.135327e+003,2.772325e+002
1.136291e+003,2.711391e+002
1.137255e+003,2.652104e+002
1.138219e+003,2.599506e+002
1.139184e+003,2.553519e+002
1.140148e+003,2.512714e+002
1.141112e+003,2.473776e+002
1.142076e+003,2.438517e+002
1.143041e+003,2.419496e+002
1.144005e+003,2.390347e+002
1.144969e+003,2.335098e+002
1.145933e+003,2.268265e+002
1.146897e+003,2.209377e+002
1.147862e+003,2.157968e+002
1.148826e+003,2.112644e+002
1.149790e+003,2.083679e+002
1.150754e+003,2.053777e+002
1.151719e+003,2.006405e+002
1.152683e+003,1.953621e+002
1.153647e+003,1.916645e+002
1.154611e+003,1.902110e+002
1.155576e+003,1.893748e+002
1.156540e+003,1.866306e+002
1.157504e+003,1.814669e+002
1.158468e+003,1.761540e+002
1.159432e+003,1.702060e+002
1.160397e+003,1.657037e+002
1.161361e+003,1.649010e+002
1.162325e+003,1.650785e+002
1.163289e+003,1.623390e+002
1.164254e+003,1.561743e+002
1.165218e+003,1.499943e+002
1.166182e+003,1.451246e+002
1.167146e+003,1.419307e+002
1.168111e+003,1.415711e+002
1.169075e+003,1.422416e+002
1.170039e+003,1.408844e+002
1.171003e+003,1.366103e+002
1.171968e+003,1.310536e+002
1.172932e+003,1.263845e+002
1.173896e+003,1.227151e+002
1.174860e+003,1.198102e+002
1.175824e+003,1.183189e+002
1.176789e+003,1.161611e+002
1.177753e+003,1.127502e+002
1.178717e+003,1.090870e+002
1.179681e+003,1.058189e+002
1.180646e+003,1.030545e+002
1.181610e+003,1.010040e+002
1.182574e+003,1.001793e+002
1.183538e+003,9.919238e+001
1.184503e+003,9.575369e+001
1.185467e+003,9.110548e+001
1.186431e+003,8.738669e+001
1.187395e+003,8.496310e+001
1.188359e+003,8.279742e+001
1.189324e+003,7.992986e+001
1.190288e+003,7.668065e+001
1.191252e+003,7.468474e+001
1.192216e+003,7.502020e+001
1.193181e+003,7.438963e+001
1.194145e+003,7.154512e+001
1.195109e+003,6.817439e+001
1.196073e+003,6.540402e+001
1.197038e+003,6.345917e+001
1.198002e+003,6.219687e+001
1.198966e+003,6.146901e+001
1.199930e+003,6.095839e+001
1.200895e+003,6.056009e+001
1.201859e+003,5.998309e+001
1.202823e+003,5.798257e+001
1.203787e+003,5.421243e+001
1.204751e+003,5.042870e+001
1.205716e+003,4.785339e+001
1.206680e+003,4.619955e+001
1.207644e+003,4.456551e+001
1.208608e+003,4.288429e+001
1.209573e+003,4.115657e+001
1.210537e+003,3.956041e+001
1.211501e+003,3.828067e+001
1.212465e+003,3.753529e+001
1.213430e+003,3.711208e+001
1.214394e+003,3.643918e+001
1.215358e+003,3.513495e+001
1.216322e+003,3.336716e+001
1.217286e+003,3.170670e+001
1.218251e+003,3.032768e+001
1.219215e+003,2.913654e+001
1.220179e+003,2.860690e+001
1.221143e+003,2.751814e+001
1.222108e+003,2.455147e+001
1.223072e+003,2.161861e+001
1.224036e+003,2.079167e+001
1.225000e+003,2.177029e+001
1.225965e+003,2.272859e+001
1.226929e+003,2.335463e+001
1.227893e+003,2.306143e+001
1.228857e+003,2.206006e+001
1.229822e+003,2.097795e+001
1.230786e+003,1.981314e+001
1.231750e+003,1.845256e+001
1.232714e+003,1.688867e+001
1.233678e+003,1.514127e+001
1.234643e+003,1.349165e+001
1.235607e+003,1.336946e+001
1.236571e+003,1.655997e+001
1.237535e+003,1.822472e+001
1.238500e+003,1.711183e+001
1.239464e+003,1.568971e+001
1.240428e+003,1.495802e+001
1.241392e+003,1.447916e+001
1.242357e+003,1.342072e+001
1.243321e+003,1.180016e+001
1.244285e+003,1.112271e+001
1.245249e+003,1.310051e+001
1.246214e+003,1.600012e+001
1.247178e+003,1.673245e+001
1.248142e+003,1.536324e+001
1.249106e+003,1.293867e+001
1.250070e+003,9.754181e+000
1.251035e+003,6.864365e+000
1.251999e+003,5.730316e+000
1.252963e+003,6.374649e+000
1.253927e+003,7.422195e+000
1.254892e+003,9.539703e+000
1.255856e+003,1.119855e+001
1.256820e+003,1.187444e+001
1.257784e+003,1.200218e+001
1.258749e+003,1.193608e+001
1.259713e+003,1.165407e+001
1.260677e+003,1.058403e+001
1.261641e+003,8.419037e+000
1.262605e+003,6.493179e+000
1.263570e+003,7.604294e+000
1.264534e+003,1.187640e+001
1.265498e+003,1.338400e+001
1.266462e+003,1.080891e+001
1.267427e+003,8.652802e+000
1.268391e+003,9.401657e+000
1.269355e+003,1.117690e+001
1.270319e+003,1.111884e+001
1.271284e+003,9.126205e+000
1.272248e+003,6.856873e+000
1.273212e+003,4.586624e+000
1.274176e+003,3.361557e+000
1.275141e+003,3.526337e+000
1.276105e+003,4.057709e+000
1.277069e+003,4.041977e+000
1.278033e+003,3.523697e+000
1.278997e+003,3.293320e+000
1.279962e+003,4.157379e+000
1.280926e+003,6.077255e+000
1.281890e+003,7.576904e+000
1.282854e+003,7.328568e+000
1.283819e+003,7.043579e+000
1.284783e+003,7.496887e+000
1.285747e+003,7.661438e+000
1.286711e+003,6.961700e+000
1.287676e+003,6.073181e+000
1.288640e+003,5.905502e+000
1.289604e+003,6.509140e+000
1.290568e+003,7.020065e+000
1.291532e+003,6.602020e+000
1.292497e+003,5.886353e+000
1.293461e+003,6.781113e+000
1.294425e+003,9.017380e+000
1.295389e+003,1.025923e+001
1.296354e+003,9.484344e+000
1.297318e+003,7.913162e+000
1.298282e+003,6.672562e+000
1.299246e+003,5.714859e+000
1.300211e+003,4.899277e+000
1.301175e+003,4.284317e+000
1.302139e+003,4.505615e+000
1.303103e+003,6.244812e+000
1.304068e+003,7.649231e+000
1.305032e+003,7.589508e+000
1.305996e+003,6.549820e+000
1.306960e+003,5.445068e+000
1.307924e+003,4.807861e+000
1.308889e+003,4.671112e+000
1.309853e+003,4.784653e+000
1.310817e+003,4.717255e+000
1.311781e+003,5.103668e+000
1.312746e+003,7.797821e+000
1.313710e+003,9.669312e+000
1.314674e+003,9.575592e+000
1.315638e+003,8.984573e+000
1.316603e+003,8.662979e+000
1.317567e+003,8.354523e+000
1.318531e+003,7.827011e+000
1.319495e+003,7.428558e+000
1.320459e+003,7.546646e+000
1.321424e+003,8.139114e+000
1.322388e+003,8.578339e+000
1.323352e+003,8.145584e+000
1.324316e+003,7.098190e+000
1.325281e+003,6.705978e+000
1.326245e+003,7.667419e+000
1.327209e+003,8.968277e+000
1.328173e+003,9.369125e+000
1.329138e+003,8.858673e+000
1.330102e+003,7.258453e+000
1.331066e+003,3.424728e+000
1.332030e+003,1.236633e+000
1.332995e+003,1.919357e+000
1.333959e+003,3.471603e+000
1.334923e+003,5.016037e+000
1.335887e+003,6.236816e+000
1.336851e+003,7.084381e+000
1.337816e+003,7.654739e+000
1.338780e+003,8.022461e+000
1.339744e+003,7.997452e+000
1.340708e+003,7.342072e+000
1.341673e+003,6.463196e+000
1.342637e+003,5.069138e+000
1.343601e+003,4.302109e+000
1.344565e+003,5.042175e+000
1.345530e+003,6.188751e+000
1.346494e+003,6.700867e+000
1.347458e+003,6.834229e+000
1.348422e+003,7.574951e+000
1.349386e+003,9.121964e+000
1.350351e+003,1.018669e+001
1.351315e+003,9.897125e+000
1.352279e+003,8.979156e+000
1.353243e+003,8.444489e+000
1.354208e+003,8.208054e+000
1.355172e+003,7.546051e+000
1.356136e+003,5.860794e+000
1.357100e+003,4.149124e+000
1.358065e+003,4.059113e+000
1.359029e+003,5.458679e+000
1.359993e+003,6.026276e+000
1.360957e+003,5.598648e+000
1.361922e+003,4.938080e+000
1.362886e+003,3.542709e+000
1.363850e+003,2.620560e+000
1.364814e+003,2.809875e+000
1.365778e+003,3.596069e+000
1.366743e+003,4.562012e+000
1.367707e+003,5.457535e+000
1.368671e+003,5.877075e+000
1.369635e+003,5.457077e+000
1.370600e+003,4.586960e+000
1.371564e+003,4.097336e+000
1.372528e+003,3.630402e+000
1.373492e+003,3.720276e+000
1.374457e+003,4.867172e+000
1.375421e+003,5.629944e+000
1.376385e+003,4.916397e+000
1.377349e+003,3.973495e+000
1.378313e+003,4.931839e+000
1.379278e+003,7.686539e+000
1.380242e+003,9.322601e+000
1.381206e+003,7.887192e+000
1.382170e+003,5.656815e+000
1.383135e+003,6.147171e+000
1.384099e+003,8.419510e+000
1.385063e+003,1.009401e+001
1.386027e+003,1.055981e+001
1.386992e+003,9.996185e+000
1.387956e+003,8.331680e+000
1.388920e+003,6.481033e+000
1.389884e+003,6.002731e+000
1.390849e+003,6.981400e+000
1.391813e+003,7.678024e+000
1.392777e+003,6.869553e+000
1.393741e+003,5.954041e+000
1.394705e+003,6.462173e+000
1.395670e+003,7.693100e+000
1.396634e+003,8.804733e+000
1.397598e+003,9.324814e+000
1.398562e+003,8.865707e+000
1.399527e+003,7.493668e+000
1.400491e+003,6.443054e+000
1.401455e+003,7.689255e+000
1.402419e+003,1.134654e+001
1.403384e+003,1.272444e+001
1.404348e+003,9.290695e+000
1.405312e+003,6.356537e+000
1.406276e+003,5.131790e+000
1.407240e+003,5.213593e+000
1.408205e+003,6.011887e+000
1.409169e+003,6.963898e+000
1.410133e+003,7.926773e+000
1.411097e+003,8.775528e+000
1.412062e+003,8.975250e+000
1.413026e+003,8.221237e+000
1.413990e+003,7.296356e+000
1.414954e+003,7.409210e+000
1.415919e+003,8.364716e+000
1.416883e+003,9.147873e+000
1.417847e+003,9.431107e+000
1.418811e+003,9.458252e+000
1.419776e+003,9.679810e+000
1.420740e+003,9.761047e+000
1.421704e+003,8.705109e+000
1.422668e+003,6.686462e+000
1.423632e+003,6.066330e+000
1.424597e+003,8.192505e+000
1.425561e+003,1.086206e+001
1.426525e+003,1.193857e+001
1.427489e+003,1.214880e+001
1.428454e+003,1.226013e+001
1.429418e+003,1.233765e+001
1.430382e+003,1.230904e+001
1.431346e+003,1.188359e+001
1.432311e+003,1.115404e+001
1.433275e+003,1.079453e+001
1.434239e+003,1.121257e+001
1.435203e+003,1.169122e+001
1.436167e+003,1.176408e+001
1.437132e+003,1.157230e+001
1.438096e+003,1.086433e+001
1.439060e+003,9.991318e+000
1.440024e+003,9.352600e+000
1.440989e+003,9.218552e+000
1.441953e+003,9.675766e+000
1.442917e+003,1.047758e+001
1.443881e+003,1.114270e+001
1.444846e+003,1.144998e+001
1.445810e+003,1.171028e+001
1.446774e+003,1.230702e+001
1.447738e+003,1.334444e+001
1.448703e+003,1.331578e+001
1.449667e+003,1.151338e+001
1.450631e+003,9.868225e+000
1.451595e+003,9.078369e+000
1.452559e+003,8.817169e+000
1.453524e+003,8.656418e+000
1.454488e+003,8.533722e+000
1.455452e+003,8.579178e+000
1.456416e+003,8.819366e+000
1.457381e+003,9.221176e+000
1.458345e+003,9.858047e+000
1.459309e+003,1.055522e+001
1.460273e+003,1.073114e+001
1.461238e+003,1.078644e+001
1.462202e+003,1.079591e+001
1.463166e+003,1.027966e+001
1.464130e+003,1.010735e+001
1.465094e+003,1.082811e+001
1.466059e+003,1.160956e+001
1.467023e+003,1.122537e+001
1.467987e+003,9.887589e+000
1.468951e+003,9.609802e+000
1.469916e+003,1.189795e+001
1.470880e+003,1.498172e+001
1.471844e+003,1.561279e+001
1.472808e+003,1.428262e+001
1.473773e+003,1.386656e+001
1.474737e+003,1.492882e+001
1.475701e+003,1.574025e+001
1.476665e+003,1.550493e+001
1.477630e+003,1.486581e+001
1.478594e+003,1.399405e+001
1.479558e+003,1.284270e+001
1.480522e+003,1.258968e+001
1.481486e+003,1.380408e+001
1.482451e+003,1.515654e+001
1.483415e+003,1.616154e+001
1.484379e+003,1.681392e+001
1.485343e+003,1.693645e+001
1.486308e+003,1.689340e+001
1.487272e+003,1.712086e+001
1.488236e+003,1.768704e+001
1.489200e+003,1.863190e+001
1.490165e+003,2.002182e+001
1.491129e+003,2.146475e+001
1.492093e+003,2.249405e+001
1.493057e+003,2.332608e+001
1.494021e+003,2.290558e+001
1.494986e+003,1.983110e+001
1.495950e+003,1.819302e+001
1.496914e+003,2.012706e+001
1.497878e+003,2.236285e+001
1.498843e+003,2.246725e+001
1.499807e+003,2.153957e+001
1.500771e+003,2.183736e+001
1.501735e+003,2.388278e+001
1.502700e+003,2.627946e+001
1.503664e+003,2.772456e+001
1.504628e+003,2.829175e+001
1.505592e+003,2.852229e+001
1.506557e+003,2.862985e+001
1.507521e+003,2.880870e+001
1.508485e+003,2.850735e+001
1.509449e+003,2.855502e+001
1.510413e+003,2.946286e+001
1.511378e+003,3.022838e+001
1.512342e+003,3.021286e+001
1.513306e+003,2.966402e+001
1.514270e+003,2.901801e+001
1.515235e+003,2.838942e+001
1.516199e+003,2.778105e+001
1.517163e+003,2.732143e+001
1.518127e+003,2.677283e+001
1.519092e+003,2.492506e+001
1.520056e+003,2.082668e+001
1.521020e+003,1.865147e+001
1.521984e+003,1.940047e+001
1.522948e+003,2.037595e+001
1.523913e+003,2.167276e+001
1.524877e+003,2.270482e+001
1.525841e+003,2.248866e+001
1.526805e+003,2.137567e+001
1.527770e+003,2.020398e+001
1.528734e+003,1.918060e+001
1.529698e+003,1.867380e+001
1.530662e+003,1.942348e+001
1.531627e+003,2.089941e+001
1.532591e+003,2.129889e+001
1.533555e+003,2.053255e+001
1.534519e+003,1.947380e+001
1.535484e+003,1.771535e+001
1.536448e+003,1.645888e+001
1.537412e+003,1.613779e+001
1.538376e+003,1.622105e+001
1.539340e+003,1.649648e+001
1.540305e+003,1.694531e+001
1.541269e+003,1.726672e+001
1.542233e+003,1.718365e+001
1.543197e+003,1.676871e+001
1.544162e+003,1.636317e+001
1.545126e+003,1.545300e+001
1.546090e+003,1.246289e+001
1.547054e+003,8.531448e+000
1.548019e+003,7.354111e+000
1.548983e+003,9.210342e+000
1.549947e+003,1.143050e+001
1.550911e+003,1.353024e+001
1.551875e+003,1.512608e+001
1.552840e+003,1.598042e+001
1.553804e+003,1.637187e+001
1.554768e+003,1.622772e+001
1.555732e+003,1.519257e+001
1.556697e+003,1.372446e+001
1.557661e+003,1.181020e+001
1.558625e+003,1.044684e+001
1.559589e+003,1.165753e+001
1.560554e+003,1.440527e+001
1.561518e+003,1.622832e+001
1.562482e+003,1.674538e+001
1.563446e+003,1.631575e+001
1.564411e+003,1.467079e+001
1.565375e+003,1.288078e+001
1.566339e+003,1.211696e+001
1.567303e+003,1.211119e+001
1.568267e+003,1.221289e+001
1.569232e+003,1.235352e+001
1.570196e+003,1.186740e+001
1.571160e+003,9.885925e+000
1.572124e+003,8.039734e+000
1.573089e+003,8.597961e+000
1.574053e+003,1.053706e+001
1.575017e+003,1.190195e+001
1.575981e+003,1.243503e+001
1.576946e+003,1.301497e+001
1.577910e+003,1.400685e+001
1.578874e+003,1.468230e+001
1.579838e+003,1.445601e+001
1.580802e+003,1.400366e+001
1.581767e+003,1.438524e+001
1.582731e+003,1.536440e+001
1.583695e+003,1.582401e+001
1.584659e+003,1.547528e+001
1.585624e+003,1.444952e+001
1.586588e+003,1.255267e+001
1.587552e+003,1.099165e+001
1.588516e+003,1.081889e+001
1.589481e+003,1.176785e+001
1.590445e+003,1.301216e+001
1.591409e+003,1.420065e+001
1.592373e+003,1.509050e+001
1.593338e+003,1.593263e+001
1.594302e+003,1.646558e+001
1.595266e+003,1.529547e+001
1.596230e+003,1.246700e+001
1.597194e+003,1.085088e+001
1.598159e+003,1.096321e+001
1.599123e+003,1.181744e+001
1.600087e+003,1.377028e+001
1.601051e+003,1.566483e+001
1.602016e+003,1.664061e+001
1.602980e+003,1.651254e+001
1.603944e+003,1.482913e+001
1.604908e+003,1.185831e+001
1.605873e+003,9.878342e+000
1.606837e+003,1.060678e+001
1.607801e+003,1.277534e+001
1.608765e+003,1.420845e+001
1.609729e+003,1.468703e+001
1.610694e+003,1.496147e+001
1.611658e+003,1.537668e+001
1.612622e+003,1.546461e+001
1.613586e+003,1.538295e+001
1.614551e+003,1.502438e+001
1.615515e+003,1.270868e+001
1.616479e+003,1.025951e+001
1.617443e+003,1.127959e+001
1.618408e+003,1.529906e+001
1.619372e+003,1.784888e+001
1.620336e+003,1.696353e+001
1.621300e+003,1.472513e+001
1.622265e+003,1.242683e+001
1.623229e+003,1.047256e+001
1.624193e+003,1.079010e+001
1.625157e+003,1.344383e+001
1.626121e+003,1.492563e+001
1.627086e+003,1.401004e+001
1.628050e+003,1.329088e+001
1.629014e+003,1.467305e+001
1.629978e+003,1.631549e+001
1.630943e+003,1.672874e+001
1.631907e+003,1.618054e+001
1.632871e+003,1.503859e+001
1.633835e+003,1.358379e+001
1.634800e+003,1.367741e+001
1.635764e+003,1.769711e+001
1.636728e+003,2.243877e+001
1.637692e+003,2.205414e+001
1.638656e+003,1.748834e+001
1.639621e+003,1.536906e+001
1.640585e+003,1.674675e+001
1.641549e+003,1.729974e+001
1.642513e+003,1.527200e+001
1.643478e+003,1.340724e+001
1.644442e+003,1.367169e+001
1.645406e+003,1.506746e+001
1.646370e+003,1.682687e+001
1.647335e+003,1.862830e+001
1.648299e+003,1.969609e+001
1.649263e+003,1.979510e+001
1.650227e+003,1.929590e+001
1.651192e+003,1.813541e+001
1.652156e+003,1.682727e+001
1.653120e+003,1.648248e+001
1.654084e+003,1.700537e+001
1.655048e+003,1.708382e+001
1.656013e+003,1.630327e+001
1.656977e+003,1.570908e+001
1.657941e+003,1.577632e+001
1.658905e+003,1.590897e+001
1.659870e+003,1.542688e+001
1.660834e+003,1.511270e+001
1.661798e+003,1.661517e+001
1.662762e+003,1.998860e+001
1.663727e+003,2.205569e+001
1.664691e+003,2.098943e+001
1.665655e+003,1.895930e+001
1.666619e+003,1.719972e+001
1.667583e+003,1.621486e+001
1.668548e+003,1.739322e+001
1.669512e+003,2.021136e+001
1.670476e+003,2.151280e+001
1.671440e+003,2.049791e+001
1.672405e+003,1.864537e+001
1.673369e+003,1.636183e+001
1.674333e+003,1.420244e+001
1.675297e+003,1.341336e+001
1.676262e+003,1.385965e+001
1.677226e+003,1.527660e+001
1.678190e+003,1.807355e+001
1.679154e+003,2.042326e+001
1.680119e+003,2.149557e+001
1.681083e+003,2.197380e+001
1.682047e+003,2.261438e+001
1.683011e+003,2.308644e+001
1.683975e+003,2.253450e+001
1.684940e+003,2.116071e+001
1.685904e+003,2.011299e+001
1.686868e+003,1.978604e+001
1.687832e+003,1.977449e+001
1.688797e+003,1.947974e+001
1.689761e+003,1.897398e+001
1.690725e+003,1.928241e+001
1.691689e+003,2.077127e+001
1.692654e+003,2.224658e+001
1.693618e+003,2.487848e+001
1.694582e+003,2.648456e+001
1.695546e+003,2.463051e+001
1.696510e+003,2.261607e+001
1.697475e+003,2.381790e+001
1.698439e+003,2.650266e+001
1.699403e+003,2.751108e+001
1.700367e+003,2.664819e+001
1.701332e+003,2.549478e+001
1.702296e+003,2.484419e+001
1.703260e+003,2.493935e+001
1.704224e+003,2.606534e+001
1.705189e+003,2.782220e+001
1.706153e+003,2.928586e+001
1.707117e+003,3.037080e+001
1.708081e+003,3.071335e+001
1.709046e+003,3.126128e+001
1.710010e+003,3.178542e+001
1.710974e+003,3.090216e+001
1.711938e+003,3.012549e+001
1.712902e+003,3.048651e+001
1.713867e+003,3.135121e+001
1.714831e+003,3.236011e+001
1.715795e+003,3.355351e+001
1.716759e+003,3.485503e+001
1.717724e+003,3.602972e+001
1.718688e+003,3.644728e+001
1.719652e+003,3.511365e+001
1.720616e+003,3.270860e+001
1.721581e+003,3.286169e+001
1.722545e+003,3.645625e+001
1.723509e+003,3.862285e+001
1.724473e+003,3.897690e+001
1.725438e+003,3.858308e+001
1.726402e+003,3.665036e+001
1.727366e+003,3.474231e+001
1.728330e+003,3.392703e+001
1.729294e+003,3.382863e+001
1.730259e+003,3.398769e+001
1.731223e+003,3.426285e+001
1.732187e+003,3.443169e+001
1.733151e+003,3.426309e+001
1.734116e+003,3.392795e+001
1.735080e+003,3.393356e+001
1.736044e+003,3.428618e+001
1.737008e+003,3.421748e+001
1.737973e+003,3.364465e+001
1.738937e+003,3.413438e+001
1.739901e+003,3.626796e+001
1.740865e+003,3.732687e+001
1.741829e+003,3.574414e+001
1.742794e+003,3.377873e+001
1.743758e+003,3.351488e+001
1.744722e+003,3.413647e+001
1.745686e+003,3.444931e+001
1.746651e+003,3.437903e+001
1.747615e+003,3.402319e+001
1.748579e+003,3.315088e+001
1.749543e+003,3.242592e+001
1.750508e+003,3.228290e+001
1.751472e+003,3.276407e+001
1.752436e+003,3.438394e+001
1.753400e+003,3.614883e+001
1.754365e+003,3.582373e+001
1.755329e+003,3.344162e+001
1.756293e+003,3.120558e+001
1.757257e+003,3.008046e+001
1.758221e+003,2.947142e+001
1.759186e+003,2.883185e+001
1.760150e+003,2.858090e+001
1.761114e+003,2.932187e+001
1.762078e+003,3.070195e+001
1.763043e+003,3.168274e+001
1.764007e+003,3.209309e+001
1.764971e+003,3.209010e+001
1.765935e+003,3.252466e+001
1.766900e+003,3.282680e+001
1.767864e+003,3.192174e+001
1.768828e+003,3.083162e+001
1.769792e+003,3.088782e+001
1.770756e+003,3.195154e+001
1.771721e+003,3.315059e+001
1.772685e+003,3.389275e+001
1.773649e+003,3.407259e+001
1.774613e+003,3.394977e+001
1.775578e+003,3.336470e+001
1.776542e+003,3.099124e+001
1.777506e+003,2.673816e+001
1.778470e+003,2.570685e+001
1.779435e+003,2.936089e+001
1.780399e+003,3.132408e+001
1.781363e+003,2.968117e+001
1.782327e+003,2.861176e+001
1.783292e+003,3.001085e+001
1.784256e+003,3.135818e+001
1.785220e+003,3.074681e+001
1.786184e+003,2.920930e+001
1.787148e+003,2.849841e+001
1.788113e+003,2.868419e+001
1.789077e+003,2.855292e+001
1.790041e+003,2.737221e+001
1.791005e+003,2.587163e+001
1.791970e+003,2.493832e+001
1.792934e+003,2.464218e+001
1.793898e+003,2.469943e+001
1.794862e+003,2.506836e+001
1.795827e+003,2.625894e+001
1.796791e+003,2.836984e+001
1.797755e+003,2.896516e+001
1.798719e+003,2.635068e+001
1.799683e+003,2.376715e+001
1.800648e+003,2.501421e+001
1.801612e+003,2.841409e+001
1.802576e+003,2.905301e+001
1.803540e+003,2.678589e+001
1.804505e+003,2.544650e+001
1.805469e+003,2.662758e+001
1.806433e+003,2.805849e+001
1.807397e+003,2.927193e+001
1.808362e+003,2.950694e+001
1.809326e+003,2.755794e+001
1.810290e+003,2.491078e+001
1.811254e+003,2.333417e+001
1.812219e+003,2.307808e+001
1.813183e+003,2.418797e+001
1.814147e+003,2.612570e+001
1.815111e+003,2.671199e+001
1.816075e+003,2.442738e+001
1.817040e+003,2.129472e+001
1.818004e+003,2.073976e+001
1.818968e+003,2.262006e+001
1.819932e+003,2.383543e+001
1.820897e+003,2.322755e+001
1.821861e+003,2.340195e+001
1.822825e+003,2.584052e+001
1.823789e+003,2.766270e+001
1.824754e+003,2.836859e+001
1.825718e+003,2.865991e+001
1.826682e+003,2.806308e+001
1.827646e+003,2.692488e+001
1.828610e+003,2.630769e+001
1.829575e+003,2.630067e+001
1.830539e+003,2.580771e+001
1.831503e+003,2.410327e+001
1.832467e+003,2.314098e+001
1.833432e+003,2.524492e+001
1.834396e+003,2.821819e+001
1.835360e+003,2.921425e+001
1.836324e+003,2.908049e+001
1.837289e+003,2.941379e+001
1.838253e+003,2.988152e+001
1.839217e+003,2.895941e+001
1.840181e+003,2.619099e+001
1.841146e+003,2.397473e+001
1.842110e+003,2.449841e+001
1.843074e+003,2.666357e+001
1.844038e+003,2.800740e+001
1.845002e+003,2.845044e+001
1.845967e+003,2.896013e+001
1.846931e+003,2.982083e+001
1.847895e+003,3.044115e+001
1.848859e+003,3.043532e+001
1.849824e+003,2.946434e+001
1.850788e+003,2.703458e+001
1.851752e+003,2.484000e+001
1.852716e+003,2.440630e+001
1.853681e+003,2.535146e+001
1.854645e+003,2.691460e+001
1.855609e+003,2.839978e+001
1.856573e+003,2.870374e+001
1.857537e+003,2.727455e+001
1.858502e+003,2.556029e+001
1.859466e+003,2.550784e+001
1.860430e+003,2.678799e+001
1.861394e+003,2.784097e+001
1.862359e+003,2.844830e+001
1.863323e+003,2.920677e+001
1.864287e+003,3.013492e+001
1.865251e+003,2.990341e+001
1.866216e+003,2.823039e+001
1.867180e+003,2.686690e+001
1.868144e+003,2.628648e+001
1.869108e+003,2.629979e+001
1.870073e+003,2.753949e+001
1.871037e+003,2.973769e+001
1.872001e+003,3.083231e+001
1.872965e+003,3.078078e+001
1.873929e+003,3.087283e+001
1.874894e+003,3.105344e+001
1.875858e+003,3.083330e+001
1.876822e+003,2.999297e+001
1.877786e+003,2.937656e+001
1.878751e+003,3.015773e+001
1.879715e+003,3.111880e+001
1.880679e+003,2.982875e+001
1.881643e+003,2.700194e+001
1.882608e+003,2.560104e+001
1.883572e+003,2.656091e+001
1.884536e+003,2.840321e+001
1.885500e+003,2.996713e+001
1.886464e+003,3.068990e+001
1.887429e+003,2.961209e+001
1.888393e+003,2.748343e+001
1.889357e+003,2.697552e+001
1.890321e+003,2.802737e+001
1.891286e+003,2.873318e+001
1.892250e+003,2.861044e+001
1.893214e+003,2.829837e+001
1.894178e+003,2.839705e+001
1.895143e+003,2.880992e+001
1.896107e+003,2.896007e+001
1.897071e+003,2.908159e+001
1.898035e+003,2.996132e+001
1.899000e+003,3.103191e+001
1.899964e+003,3.115218e+001
1.900928e+003,3.126350e+001
1.901892e+003,3.118198e+001
1.902856e+003,2.949695e+001
1.903821e+003,2.804453e+001
1.904785e+003,2.795419e+001
1.905749e+003,2.788919e+001
1.906713e+003,2.679692e+001
1.907678e+003,2.558765e+001
1.908642e+003,2.562921e+001
1.909606e+003,2.668645e+001
1.910570e+003,2.727055e+001
1.911535e+003,2.683649e+001
1.912499e+003,2.672154e+001
1.913463e+003,2.814883e+001
1.914427e+003,2.969026e+001
1.915391e+003,2.871788e+001
1.916356e+003,2.600861e+001
1.917320e+003,2.468802e+001
1.918284e+003,2.495772e+001
1.919248e+003,2.618228e+001
1.920213e+003,2.796214e+001
1.921177e+003,2.914107e+001
1.922141e+003,2.946808e+001
1.923105e+003,2.913487e+001
1.924070e+003,2.752361e+001
1.925034e+003,2.564931e+001
1.925998e+003,2.725102e+001
1.926962e+003,3.248514e+001
1.927927e+003,3.424655e+001
1.928891e+003,2.997739e+001
1.929855e+003,2.659383e+001
1.930819e+003,2.524223e+001
1.931783e+003,2.466617e+001
1.932748e+003,2.484502e+001
1.933712e+003,2.542332e+001
1.934676e+003,2.602950e+001
1.935640e+003,2.663989e+001
1.936605e+003,2.739453e+001
1.937569e+003,2.801831e+001
1.938533e+003,2.806264e+001
1.939497e+003,2.770872e+001
1.940462e+003,2.724980e+001
1.941426e+003,2.612247e+001
1.942390e+003,2.490343e+001
1.943354e+003,2.537465e+001
1.944318e+003,2.653343e+001
1.945283e+003,2.565587e+001
1.946247e+003,2.335257e+001
1.947211e+003,2.215381e+001
1.948175e+003,2.261362e+001
1.949140e+003,2.377155e+001
1.950104e+003,2.482808e+001
1.951068e+003,2.548982e+001
1.952032e+003,2.581290e+001
1.952997e+003,2.599371e+001
1.953961e+003,2.614587e+001
1.954925e+003,2.621330e+001
1.955889e+003,2.639246e+001
1.956854e+003,2.671712e+001
1.957818e+003,2.729919e+001
1.958782e+003,2.986266e+001
1.959746e+003,3.077885e+001
1.960710e+003,2.581911e+001
1.961675e+003,2.090282e+001
1.962639e+003,2.153127e+001
1.963603e+003,2.494209e+001
1.964567e+003,2.712900e+001
1.965532e+003,2.748399e+001
1.966496e+003,2.588637e+001
1.967460e+003,2.204785e+001
1.968424e+003,1.950018e+001
1.969389e+003,2.139473e+001
1.970353e+003,2.393448e+001
1.971317e+003,2.398116e+001
1.972281e+003,2.304767e+001
1.973245e+003,2.318805e+001
1.974210e+003,2.404048e+001
1.975174e+003,2.390332e+001
1.976138e+003,2.284647e+001
1.977102e+003,2.293991e+001
1.978067e+003,2.477499e+001
1.979031e+003,2.617236e+001
1.979995e+003,2.532791e+001
1.980959e+003,2.336006e+001
1.981924e+003,2.237630e+001
1.982888e+003,2.229398e+001
1.983852e+003,2.110979e+001
1.984816e+003,1.850943e+001
1.985781e+003,1.761093e+001
1.986745e+003,1.932114e+001
1.987709e+003,2.151126e+001
1.988673e+003,2.340456e+001
1.989637e+003,2.447363e+001
1.990602e+003,2.415422e+001
1.991566e+003,2.290715e+001
1.992530e+003,2.138521e+001
1.993494e+003,2.024083e+001
1.994459e+003,2.142404e+001
1.995423e+003,2.577542e+001
1.996387e+003,2.782561e+001
1.997351e+003,2.577638e+001
1.998316e+003,2.359734e+001
1.999280e+003,2.172209e+001
2.000244e+003,2.104723e+001
2.001208e+003,2.291656e+001
2.002172e+003,2.521541e+001
2.003137e+003,2.549245e+001
2.004101e+003,2.441089e+001
2.005065e+003,2.395461e+001
2.006029e+003,2.449442e+001
2.006994e+003,2.497133e+001
2.007958e+003,2.469153e+001
2.008922e+003,2.414305e+001
2.009886e+003,2.435744e+001
2.010851e+003,2.476724e+001
2.011815e+003,2.398987e+001
2.012779e+003,2.288989e+001
2.013743e+003,2.311176e+001
2.014708e+003,2.416249e+001
2.015672e+003,2.470158e+001
2.016636e+003,2.462338e+001
2.017600e+003,2.434470e+001
2.018564e+003,2.405331e+001
2.019529e+003,2.468901e+001
2.020493e+003,2.749088e+001
2.021457e+003,3.058192e+001
2.022421e+003,2.949275e+001
2.023386e+003,2.490602e+001
2.024350e+003,2.131873e+001
2.025314e+003,1.882535e+001
2.026278e+003,1.960805e+001
2.027243e+003,2.437375e+001
2.028207e+003,2.801714e+001
2.029171e+003,2.861159e+001
2.030135e+003,2.798564e+001
2.031099e+003,2.716449e+001
2.032064e+003,2.640802e+001
2.033028e+003,2.611964e+001
2.033992e+003,2.586516e+001
2.034956e+003,2.514330e+001
2.035921e+003,2.454424e+001
2.036885e+003,2.479826e+001
2.037849e+003,2.688669e+001
2.038813e+003,2.824689e+001
2.039778e+003,2.619688e+001
2.040742e+003,2.404094e+001
2.041706e+003,2.427321e+001
2.042670e+003,2.499144e+001
2.043635e+003,2.413887e+001
2.044599e+003,2.279115e+001
2.045563e+003,2.310434e+001
2.046527e+003,2.499028e+001
2.047491e+003,2.644704e+001
2.048456e+003,2.742982e+001
2.049420e+003,2.724721e+001
2.050384e+003,2.295412e+001
2.051348e+003,1.996878e+001
2.052313e+003,2.278255e+001
2.053277e+003,2.650732e+001
2.054241e+003,2.691876e+001
2.055205e+003,2.628566e+001
2.056170e+003,2.809203e+001
2.057134e+003,3.094954e+001
2.058098e+003,3.101662e+001
2.059062e+003,2.809694e+001
2.060027e+003,2.576816e+001
2.060991e+003,2.584908e+001
2.061955e+003,2.609013e+001
2.062919e+003,2.346806e+001
2.063884e+003,2.057379e+001
2.064848e+003,2.175807e+001
2.065812e+003,2.505772e+001
2.066776e+003,2.629666e+001
2.067740e+003,2.548698e+001
2.068705e+003,2.444652e+001
2.069669e+003,2.368141e+001
2.070633e+003,2.262701e+001
2.071597e+003,2.107787e+001
2.072562e+003,2.032646e+001
2.073526e+003,2.191878e+001
2.074490e+003,2.478770e+001
2.075454e+003,2.642439e+001
2.076418e+003,2.668405e+001
2.077383e+003,2.597537e+001
2.078347e+003,2.409001e+001
2.079311e+003,2.245053e+001
2.080275e+003,2.199062e+001
2.081240e+003,2.166670e+001
2.082204e+003,2.059097e+001
2.083168e+003,2.036066e+001
2.084132e+003,2.204855e+001
2.085096e+003,2.339742e+001
2.086061e+003,2.195944e+001
2.087025e+003,1.935423e+001
2.087989e+003,1.975732e+001
2.088953e+003,2.329211e+001
2.089918e+003,2.421770e+001
2.090882e+003,2.156763e+001
2.091846e+003,2.048801e+001
2.092810e+003,2.219507e+001
2.093775e+003,2.345688e+001
2.094739e+003,2.298698e+001
2.095703e+003,2.178973e+001
2.096667e+003,2.038454e+001
2.097632e+003,1.895544e+001
2.098596e+003,1.777000e+001
2.099560e+003,1.716576e+001
2.100524e+003,1.739923e+001
2.101489e+003,1.801982e+001
2.102453e+003,1.907552e+001
2.103417e+003,2.200136e+001
2.104381e+003,2.358530e+001
2.105345e+003,2.375072e+001
2.106310e+003,2.264998e+001
2.107274e+003,1.859834e+001
2.108238e+003,1.520215e+001
2.109202e+003,1.502785e+001
2.110167e+003,1.661803e+001
2.111131e+003,1.841049e+001
2.112095e+003,1.989082e+001
2.113059e+003,2.045102e+001
2.114023e+003,2.072464e+001
2.114988e+003,2.111548e+001
2.115952e+003,1.990308e+001
2.116916e+003,1.923997e+001
2.117880e+003,2.100713e+001
2.118845e+003,2.232312e+001
2.119809e+003,2.241020e+001
2.120773e+003,2.196097e+001
2.121737e+003,2.024124e+001
2.122702e+003,1.808311e+001
2.123666e+003,1.723817e+001
2.124630e+003,1.744859e+001
2.125594e+003,1.719426e+001
2.126559e+003,1.620085e+001
2.127523e+003,1.522388e+001
2.128487e+003,1.414310e+001
2.129451e+003,1.446205e+001
2.130416e+003,1.839044e+001
2.131380e+003,2.178822e+001
2.132344e+003,2.106216e+001
2.133308e+003,1.853510e+001
2.134272e+003,1.644255e+001
2.135237e+003,1.475719e+001
2.136201e+003,1.279433e+001
2.137165e+003,1.099944e+001
2.138129e+003,1.113118e+001
2.139094e+003,1.383228e+001
2.140058e+003,1.648633e+001
2.141022e+003,1.734363e+001
2.141986e+003,1.673590e+001
2.142950e+003,1.374162e+001
2.143915e+003,1.116330e+001
2.144879e+003,1.291141e+001
2.145843e+003,1.610295e+001
2.146807e+003,1.638191e+001
2.147772e+003,1.483118e+001
2.148736e+003,1.462770e+001
2.149700e+003,1.584787e+001
2.150664e+003,1.638213e+001
2.151629e+003,1.543166e+001
2.152593e+003,1.393262e+001
2.153557e+003,1.266223e+001
2.154521e+003,1.166789e+001
2.155486e+003,1.033168e+001
2.156450e+003,9.106430e+000
2.157414e+003,9.072495e+000
2.158378e+003,9.992844e+000
2.159343e+003,1.170306e+001
2.160307e+003,1.366614e+001
2.161271e+003,1.433810e+001
2.162235e+003,1.361984e+001
2.163199e+003,1.349911e+001
2.164164e+003,1.478809e+001
2.165128e+003,1.483633e+001
2.166092e+003,1.098885e+001
2.167056e+003,6.603867e+000
2.168021e+003,5.912292e+000
2.168985e+003,7.386002e+000
2.169949e+003,9.584167e+000
2.170913e+003,1.194847e+001
2.171877e+003,1.281450e+001
2.172842e+003,1.260721e+001
2.173806e+003,1.311737e+001
2.174770e+003,1.421098e+001
2.175734e+003,1.301212e+001
2.176699e+003,8.559006e+000
2.177663e+003,5.859131e+000
2.178627e+003,9.733307e+000
2.179591e+003,1.504820e+001
2.180556e+003,1.316167e+001
2.181520e+003,7.336060e+000
2.182484e+003,5.304352e+000
2.183448e+003,6.033569e+000
2.184413e+003,6.022690e+000
2.185377e+003,5.401993e+000
2.186341e+003,6.662811e+000
2.187305e+003,9.717224e+000
2.188270e+003,1.124516e+001
2.189234e+003,1.009038e+001
2.190198e+003,8.679977e+000
2.191162e+003,8.661346e+000
2.192126e+003,8.783463e+000
2.193091e+003,7.738281e+000
2.194055e+003,6.216537e+000
2.195019e+003,5.350281e+000
2.195983e+003,5.267609e+000
2.196948e+003,5.959412e+000
2.197912e+003,7.161819e+000
2.198876e+003,8.205475e+000
2.199840e+003,8.833771e+000
2.200804e+003,9.070984e+000
2.201769e+003,8.965012e+000
2.202733e+003,8.865707e+000
2.203697e+003,9.221146e+000
2.204661e+003,9.806488e+000
2.205626e+003,1.026929e+001
2.206590e+003,1.046471e+001
2.207554e+003,9.479172e+000
2.208518e+003,7.658325e+000
2.209483e+003,7.021423e+000
2.210447e+003,7.289276e+000
2.211411e+003,6.210403e+000
2.212375e+003,3.895157e+000
2.213340e+003,2.560760e+000
2.214304e+003,2.960449e+000
2.215268e+003,4.517197e+000
2.216232e+003,6.633606e+000
2.217197e+003,7.969620e+000
2.218161e+003,7.276154e+000
2.219125e+003,5.728821e+000
2.220089e+003,5.111618e+000
2.221053e+003,5.398972e+000
2.222018e+003,5.946198e+000
2.222982e+003,6.182236e+000
2.223946e+003,5.917267e+000
2.224910e+003,5.539688e+000
2.225875e+003,5.347977e+000
2.226839e+003,5.219147e+000
2.227803e+003,4.677399e+000
2.228767e+003,3.465408e+000
2.229731e+003,2.397827e+000
2.230696e+003,2.346008e+000
2.231660e+003,2.767487e+000
2.232624e+003,3.523682e+000
2.233588e+003,4.388290e+000
2.234553e+003,4.220230e+000
2.235517e+003,3.471512e+000
2.236481e+003,2.770554e+000
2.237445e+003,2.239212e+000
2.238410e+003,2.951721e+000
2.239374e+003,4.831970e+000
2.240338e+003,6.043945e+000
2.241302e+003,5.866959e+000
2.242267e+003,5.117798e+000
2.243231e+003,4.226608e+000
2.244195e+003,3.971069e+000
2.245159e+003,5.532364e+000
2.246124e+003,7.415359e+000
2.247088e+003,8.301880e+000
2.248052e+003,8.083862e+000
2.249016e+003,6.203140e+000
2.249980e+003,3.815033e+000
2.250945e+003,2.471130e+000
2.251909e+003,2.514282e+000
2.252873e+003,4.270721e+000
2.253837e+003,7.047226e+000
2.254802e+003,8.047379e+000
2.255766e+003,6.046738e+000
2.256730e+003,4.471298e+000
2.257694e+003,6.220322e+000
2.258658e+003,8.081512e+000
2.259623e+003,7.547241e+000
2.260587e+003,6.089828e+000
2.261551e+003,4.418381e+000
2.262515e+003,3.327454e+000
2.263480e+003,4.501053e+000
2.264444e+003,6.687958e+000
2.265408e+003,6.996109e+000
2.266372e+003,5.279984e+000
2.267337e+003,3.668427e+000
2.268301e+003,2.875488e+000
2.269265e+003,2.527374e+000
2.270229e+003,3.256500e+000
2.271194e+003,4.626770e+000
2.272158e+003,5.441483e+000
2.273122e+003,5.850937e+000
2.274086e+003,6.088593e+000
2.275051e+003,6.566803e+000
2.276015e+003,8.461838e+000
2.276979e+003,1.069070e+001
2.277943e+003,1.138808e+001
2.278907e+003,1.081757e+001
2.279872e+003,1.004083e+001
2.280836e+003,9.049515e+000
2.281800e+003,8.603790e+000
2.282764e+003,9.921677e+000
2.283729e+003,9.933762e+000
2.284693e+003,6.152817e+000
2.285657e+003,4.609985e+000
2.286621e+003,8.068573e+000
2.287585e+003,1.095143e+001
2.288550e+003,1.106746e+001
2.289514e+003,1.010144e+001
2.290478e+003,8.436905e+000
2.291442e+003,7.138168e+000
2.292407e+003,7.931549e+000
2.293371e+003,1.024899e+001
2.294335e+003,1.221184e+001
2.295299e+003,1.396794e+001
2.296264e+003,1.424173e+001
2.297228e+003,1.206587e+001
2.298192e+003,1.136917e+001
2.299156e+003,1.383299e+001
2.300121e+003,1.527187e+001
2.301085e+003,1.330347e+001
2.302049e+003,1.138950e+001
2.303013e+003,1.204861e+001
2.303978e+003,1.326019e+001
2.304942e+003,1.234543e+001
2.305906e+003,1.082576e+001
2.306870e+003,1.277083e+001
2.307834e+003,1.756287e+001
2.308799e+003,1.915543e+001
2.309763e+003,1.751697e+001
2.310727e+003,1.654523e+001
2.311691e+003,1.605469e+001
2.312656e+003,1.712361e+001
2.313620e+003,2.003328e+001
2.314584e+003,2.235510e+001
2.315548e+003,2.322278e+001
2.316512e+003,2.214252e+001
2.317477e+003,1.890915e+001
2.318441e+003,1.616980e+001
2.319405e+003,1.671495e+001
2.320369e+003,1.940517e+001
2.321334e+003,2.245364e+001
2.322298e+003,2.521204e+001
2.323262e+003,2.651614e+001
2.324226e+003,2.763297e+001
2.325191e+003,3.162143e+001
2.326155e+003,3.733121e+001
2.327119e+003,4.090416e+001
2.328083e+003,4.138968e+001
2.329048e+003,3.902560e+001
2.330012e+003,3.477171e+001
2.330976e+003,3.224548e+001
2.331940e+003,3.344269e+001
2.332905e+003,3.461536e+001
2.333869e+003,3.170490e+001
2.334833e+003,2.896472e+001
2.335797e+003,3.107498e+001
2.336761e+003,3.524800e+001
2.337726e+003,3.846613e+001
2.338690e+003,4.051535e+001
2.339654e+003,4.174744e+001
2.340618e+003,4.286977e+001
2.341583e+003,4.495715e+001
2.342547e+003,4.781519e+001
2.343511e+003,4.964001e+001
2.344475e+003,4.969739e+001
2.345439e+003,4.951126e+001
2.346404e+003,4.924257e+001
2.347368e+003,4.926649e+001
2.348332e+003,4.983511e+001
2.349296e+003,5.151270e+001
2.350261e+003,5.560951e+001
2.351225e+003,5.976886e+001
2.352189e+003,6.190570e+001
2.353153e+003,6.297029e+001
2.354118e+003,6.386235e+001
2.355082e+003,6.469058e+001
2.356046e+003,6.610446e+001
2.357010e+003,6.838800e+001
2.357975e+003,7.032065e+001
2.358939e+003,7.165790e+001
2.359903e+003,7.305290e+001
2.360867e+003,7.337596e+001
2.361832e+003,7.500769e+001
2.362796e+003,7.952594e+001
2.363760e+003,8.369559e+001
2.364724e+003,8.675034e+001
2.365688e+003,8.920139e+001
2.366653e+003,9.049998e+001
2.367617e+003,9.146834e+001
2.368581e+003,9.357675e+001
2.369545e+003,9.661142e+001
2.370510e+003,1.001136e+002
2.371474e+003,1.040116e+002
2.372438e+003,1.072396e+002
2.373402e+003,1.096522e+002
2.374366e+003,1.112556e+002
2.375331e+003,1.121414e+002
2.376295e+003,1.117287e+002
2.377259e+003,1.107097e+002
2.378223e+003,1.128487e+002
2.379188e+003,1.183511e+002
2.380152e+003,1.218978e+002
2.381116e+003,1.209345e+002
2.382080e+003,1.192582e+002
2.383045e+003,1.194691e+002
2.384009e+003,1.204452e+002
2.384973e+003,1.212426e+002
2.385937e+003,1.225496e+002
2.386902e+003,1.262236e+002
2.387866e+003,1.302234e+002
2.388830e+003,1.312301e+002
2.389794e+003,1.305902e+002
2.390759e+003,1.307537e+002
2.391723e+003,1.315164e+002
2.392687e+003,1.318646e+002
2.393651e+003,1.321539e+002
2.394615e+003,1.334842e+002
2.395580e+003,1.363303e+002
2.396544e+003,1.373978e+002
2.397508e+003,1.344567e+002
2.398472e+003,1.323764e+002
2.399437e+003,1.319749e+002
2.400401e+003,1.330993e+002
2.401365e+003,1.365952e+002
2.402329e+003,1.394211e+002
2.403293e+003,1.393679e+002
2.404258e+003,1.385805e+002
2.405222e+003,1.396731e+002
2.406186e+003,1.419283e+002
2.407150e+003,1.432673e+002
2.408115e+003,1.436655e+002
2.409079e+003,1.433794e+002
2.410043e+003,1.424852e+002
2.411007e+003,1.445952e+002
2.411972e+003,1.494682e+002
2.412936e+003,1.522050e+002
2.413900e+003,1.520906e+002
2.414864e+003,1.511131e+002
2.415829e+003,1.503129e+002
2.416793e+003,1.497327e+002
2.417757e+003,1.492449e+002
2.418721e+003,1.501585e+002
2.419686e+003,1.541337e+002
2.420650e+003,1.578109e+002
2.421614e+003,1.569059e+002
2.422578e+003,1.545127e+002
2.423542e+003,1.526870e+002
2.424507e+003,1.520022e+002
2.425471e+003,1.546919e+002
2.426435e+003,1.583206e+002
2.427399e+003,1.589028e+002
2.428364e+003,1.572231e+002
2.429328e+003,1.562739e+002
2.430292e+003,1.566933e+002
2.431256e+003,1.575712e+002
2.432220e+003,1.588250e+002
2.433185e+003,1.587502e+002
2.434149e+003,1.545616e+002
2.435113e+003,1.527589e+002
2.436077e+003,1.560601e+002
2.437042e+003,1.572837e+002
2.438006e+003,1.537968e+002
2.438970e+003,1.509185e+002
2.439934e+003,1.514088e+002
2.440899e+003,1.520120e+002
2.441863e+003,1.502276e+002
2.442827e+003,1.475752e+002
2.443791e+003,1.456751e+002
2.444756e+003,1.443320e+002
2.445720e+003,1.441364e+002
2.446684e+003,1.447041e+002
2.447648e+003,1.440284e+002
2.448613e+003,1.423672e+002
2.449577e+003,1.400952e+002
2.450541e+003,1.375972e+002
2.451505e+003,1.361599e+002
2.452469e+003,1.356805e+002
2.453434e+003,1.342590e+002
2.454398e+003,1.312412e+002
2.455362e+003,1.290199e+002
2.456326e+003,1.297195e+002
2.457291e+003,1.305519e+002
2.458255e+003,1.287488e+002
2.459219e+003,1.265522e+002
2.460183e+003,1.239915e+002
2.461147e+003,1.217378e+002
2.462112e+003,1.217223e+002
2.463076e+003,1.223333e+002
2.464040e+003,1.217435e+002
2.465004e+003,1.201927e+002
2.465969e+003,1.186792e+002
2.466933e+003,1.176306e+002
2.467897e+003,1.165910e+002
2.468861e+003,1.152795e+002
2.469826e+003,1.153652e+002
2.470790e+003,1.174730e+002
2.471754e+003,1.159233e+002
2.472718e+003,1.105186e+002
2.473683e+003,1.093124e+002
2.474647e+003,1.124387e+002
2.475611e+003,1.148796e+002
2.476575e+003,1.157376e+002
2.477540e+003,1.143424e+002
2.478504e+003,1.104111e+002
2.479468e+003,1.060392e+002
2.480432e+003,1.026670e+002
2.481396e+003,1.018258e+002
2.482361e+003,1.069138e+002
2.483325e+003,1.126197e+002
2.484289e+003,1.126088e+002
2.485253e+003,1.099724e+002
2.486218e+003,1.068552e+002
2.487182e+003,1.041495e+002
2.488146e+003,1.032622e+002
2.489110e+003,1.033757e+002
2.490074e+003,1.033327e+002
2.491039e+003,1.031256e+002
2.492003e+003,1.023571e+002
2.492967e+003,1.004014e+002
2.493931e+003,9.896342e+001
2.494896e+003,9.907547e+001
2.495860e+003,9.823544e+001
2.496824e+003,9.569705e+001
2.497788e+003,9.567429e+001
2.498753e+003,9.890437e+001
2.499717e+003,1.008118e+002
2.500681e+003,1.003052e+002
2.501645e+003,9.980318e+001
2.502610e+003,1.002801e+002
2.503574e+003,1.005724e+002
2.504538e+003,1.000533e+002
2.505502e+003,9.917784e+001
2.506467e+003,9.761665e+001
2.507431e+003,9.598149e+001
2.508395e+003,9.582541e+001
2.509359e+003,9.661981e+001
2.510323e+003,9.821429e+001
2.511288e+003,9.951987e+001
2.512252e+003,9.860376e+001
2.513216e+003,9.689751e+001
2.514180e+003,9.705913e+001
2.515145e+003,9.853564e+001
2.516109e+003,9.894177e+001
2.517073e+003,9.806139e+001
2.518037e+003,9.752896e+001
2.519001e+003,9.755620e+001
2.519966e+003,9.758447e+001
2.520930e+003,9.751700e+001
2.521894e+003,9.790581e+001
2.522858e+003,9.919212e+001
2.523823e+003,9.895941e+001
2.524787e+003,9.626949e+001
2.525751e+003,9.506895e+001
2.526715e+003,9.721568e+001
2.527680e+003,9.926109e+001
2.528644e+003,9.867294e+001
2.529608e+003,9.768005e+001
2.530572e+003,9.841873e+001
2.531537e+003,9.972043e+001
2.532501e+003,1.013125e+002
2.533465e+003,1.021260e+002
2.534429e+003,1.000777e+002
2.535394e+003,9.732419e+001
2.536358e+003,9.567062e+001
2.537322e+003,9.489769e+001
2.538286e+003,9.568066e+001
2.539250e+003,9.686996e+001
2.540215e+003,9.493890e+001
2.541179e+003,9.021252e+001
2.542143e+003,8.938826e+001
2.543107e+003,9.401537e+001
2.544072e+003,9.725533e+001
2.545036e+003,9.826894e+001
2.546000e+003,9.864180e+001
2.546964e+003,9.833937e+001
2.547928e+003,9.774956e+001
2.548893e+003,9.693123e+001
2.549857e+003,9.600502e+001
2.550821e+003,9.516660e+001
2.551785e+003,9.456181e+001
2.552750e+003,9.423016e+001
2.553714e+003,9.326457e+001
2.554678e+003,9.059825e+001
2.555642e+003,8.829730e+001
2.556607e+003,8.795731e+001
2.557571e+003,8.848615e+001
2.558535e+003,9.078238e+001
2.559499e+003,9.192001e+001
2.560464e+003,8.808507e+001
2.561428e+003,8.382594e+001
2.562392e+003,8.393365e+001
2.563356e+003,8.628540e+001
2.564321e+003,8.759613e+001
2.565285e+003,8.798096e+001
2.566249e+003,8.717552e+001
2.567213e+003,8.488266e+001
2.568177e+003,8.377170e+001
2.569142e+003,8.402298e+001
2.570106e+003,8.273572e+001
2.571070e+003,8.026747e+001
2.572034e+003,7.855373e+001
2.572999e+003,7.795625e+001
2.573963e+003,7.834311e+001
2.574927e+003,7.913599e+001
2.575891e+003,7.939641e+001
2.576855e+003,7.866505e+001
2.577820e+003,7.767110e+001
2.578784e+003,7.778545e+001
2.579748e+003,7.713966e+001
2.580712e+003,7.279535e+001
2.581677e+003,7.006744e+001
2.582641e+003,7.170107e+001
2.583605e+003,7.354073e+001
2.584569e+003,7.456860e+001
2.585534e+003,7.448875e+001
2.586498e+003,7.241948e+001
2.587462e+003,7.066998e+001
2.588426e+003,7.167905e+001
2.589391e+003,7.337018e+001
2.590355e+003,7.213768e+001
2.591319e+003,6.920709e+001
2.592283e+003,6.827583e+001
2.593248e+003,6.856529e+001
2.594212e+003,6.746243e+001
2.595176e+003,6.575380e+001
2.596140e+003,6.544467e+001
2.597104e+003,6.607005e+001
2.598069e+003,6.687216e+001
2.599033e+003,6.706221e+001
2.599997e+003,6.409914e+001
2.600961e+003,5.882864e+001
2.601926e+003,5.892747e+001
2.602890e+003,6.728391e+001
2.603854e+003,7.250716e+001
2.604818e+003,7.193887e+001
2.605782e+003,7.197307e+001
2.606747e+003,7.374495e+001
2.607711e+003,7.428941e+001
2.608675e+003,7.299815e+001
2.609639e+003,7.005408e+001
2.610604e+003,6.563826e+001
2.611568e+003,6.130707e+001
2.612532e+003,5.792424e+001
2.613496e+003,5.573776e+001
2.614461e+003,5.491814e+001
2.615425e+003,5.476289e+001
2.616389e+003,5.594403e+001
2.617353e+003,5.611998e+001
2.618318e+003,5.223602e+001
2.619282e+003,4.828804e+001
2.620246e+003,4.758212e+001
2.621210e+003,4.894795e+001
2.622175e+003,5.121400e+001
2.623139e+003,5.303043e+001
2.624103e+003,5.284117e+001
2.625067e+003,5.151120e+001
2.626031e+003,5.217810e+001
2.626996e+003,5.505652e+001
2.627960e+003,5.657997e+001
2.628924e+003,5.627940e+001
2.629888e+003,5.457112e+001
2.630853e+003,5.187617e+001
2.631817e+003,5.010147e+001
2.632781e+003,5.012184e+001
2.633745e+003,5.135828e+001
2.634709e+003,5.239702e+001
2.635674e+003,5.241832e+001
2.636638e+003,5.140788e+001
2.637602e+003,4.910609e+001
2.638566e+003,4.577261e+001
2.639531e+003,4.452565e+001
2.640495e+003,4.578212e+001
2.641459e+003,4.670316e+001
2.642423e+003,4.752832e+001
2.643388e+003,4.821989e+001
2.644352e+003,4.856764e+001
2.645316e+003,4.871487e+001
2.646280e+003,4.864561e+001
2.647245e+003,4.658772e+001
2.648209e+003,4.221118e+001
2.649173e+003,3.948950e+001
2.650137e+003,4.121028e+001
2.651102e+003,4.446352e+001
2.652066e+003,4.680809e+001
2.653030e+003,4.785789e+001
2.653994e+003,4.872569e+001
2.654958e+003,4.898682e+001
2.655923e+003,4.724509e+001
2.656887e+003,4.580174e+001
2.657851e+003,4.605052e+001
2.658815e+003,4.653209e+001
2.659780e+003,4.633228e+001
2.660744e+003,4.580490e+001
2.661708e+003,4.535402e+001
2.662672e+003,4.516412e+001
2.663636e+003,4.591518e+001
2.664601e+003,4.683279e+001
2.665565e+003,4.477809e+001
2.666529e+003,4.166162e+001
2.667493e+003,4.196344e+001
2.668458e+003,4.425044e+001
2.669422e+003,4.515486e+001
2.670386e+003,4.413409e+001
2.671350e+003,4.206091e+001
2.672315e+003,4.000043e+001
2.673279e+003,3.909328e+001
2.674243e+003,3.888855e+001
2.675207e+003,3.814998e+001
2.676172e+003,3.694685e+001
2.677136e+003,3.564023e+001
2.678100e+003,3.449754e+001
2.679064e+003,3.420877e+001
2.680029e+003,3.430794e+001
2.680993e+003,3.441785e+001
2.681957e+003,3.475002e+001
2.682921e+003,3.490970e+001
2.683885e+003,3.438069e+001
2.684850e+003,3.373622e+001
2.685814e+003,3.433253e+001
2.686778e+003,3.422232e+001
2.687742e+003,3.024272e+001
2.688707e+003,2.805014e+001
2.689671e+003,2.884964e+001
2.690635e+003,3.052293e+001
2.691599e+003,3.419952e+001
2.692563e+003,3.571721e+001
2.693528e+003,3.297510e+001
2.694492e+003,3.011977e+001
2.695456e+003,2.995064e+001
2.696420e+003,3.127885e+001
2.697385e+003,3.335611e+001
2.698349e+003,3.459248e+001
2.699313e+003,3.232912e+001
2.700277e+003,2.977682e+001
2.701242e+003,2.962543e+001
2.702206e+003,2.948363e+001
2.703170e+003,2.778386e+001
2.704134e+003,2.557158e+001
2.705099e+003,2.339211e+001
2.706063e+003,2.250003e+001
2.707027e+003,2.433284e+001
2.707991e+003,2.715871e+001
2.708956e+003,2.759177e+001
2.709920e+003,2.597876e+001
2.710884e+003,2.417461e+001
2.711848e+003,2.292494e+001
2.712813e+003,2.411543e+001
2.713777e+003,2.635007e+001
2.714741e+003,2.585956e+001
2.715705e+003,2.317216e+001
2.716669e+003,2.110301e+001
2.717634e+003,2.033261e+001
2.718598e+003,2.091846e+001
2.719562e+003,2.274069e+001
2.720526e+003,2.244650e+001
2.721490e+003,1.861954e+001
2.722455e+003,1.585014e+001
2.723419e+003,1.499664e+001
2.724383e+003,1.684628e+001
2.725347e+003,2.081313e+001
2.726312e+003,2.245692e+001
2.727276e+003,2.127287e+001
2.728240e+003,1.947163e+001
2.729204e+003,1.856378e+001
2.730169e+003,1.890939e+001
2.731133e+003,1.949663e+001
2.732097e+003,1.892554e+001
2.733061e+003,1.673436e+001
2.734026e+003,1.509311e+001
2.734990e+003,1.619473e+001
2.735954e+003,1.713808e+001
2.736918e+003,1.659483e+001
2.737883e+003,1.695248e+001
2.738847e+003,1.829549e+001
2.739811e+003,1.896341e+001
2.740775e+003,1.861217e+001
2.741740e+003,1.726112e+001
2.742704e+003,1.543796e+001
2.743668e+003,1.415439e+001
2.744632e+003,1.329552e+001
2.745596e+003,1.274609e+001
2.746561e+003,1.111485e+001
2.747525e+003,1.017752e+001
2.748489e+003,1.310353e+001
2.749453e+003,1.444637e+001
2.750417e+003,1.236162e+001
2.751382e+003,1.189713e+001
2.752346e+003,1.497212e+001
2.753310e+003,1.760477e+001
2.754274e+003,1.705345e+001
2.755239e+003,1.532439e+001
2.756203e+003,1.440005e+001
2.757167e+003,1.370193e+001
2.758131e+003,1.211125e+001
2.759096e+003,1.104224e+001
2.760060e+003,1.290349e+001
2.761024e+003,1.403918e+001
2.761988e+003,1.044495e+001
2.762953e+003,8.137650e+000
2.763917e+003,1.124229e+001
2.764881e+003,1.473013e+001
2.765845e+003,1.374153e+001
2.766810e+003,1.096002e+001
2.767774e+003,1.042604e+001
2.768738e+003,1.114543e+001
2.769702e+003,1.140280e+001
2.770667e+003,1.155038e+001
2.771631e+003,1.060776e+001
2.772595e+003,9.453918e+000
2.773559e+003,1.108894e+001
2.774523e+003,1.331421e+001
2.775488e+003,1.336249e+001
2.776452e+003,1.321126e+001
2.777416e+003,1.353532e+001
2.778380e+003,1.265950e+001
2.779344e+003,1.236736e+001
2.780309e+003,1.337531e+001
2.781273e+003,1.158046e+001
2.782237e+003,9.652817e+000
2.783201e+003,1.054776e+001
2.784166e+003,1.129927e+001
2.785130e+003,1.141786e+001
2.786094e+003,1.144962e+001
2.787058e+003,1.154279e+001
2.788023e+003,1.192694e+001
2.788987e+003,1.188617e+001
2.789951e+003,1.113800e+001
2.790915e+003,1.046768e+001
2.791880e+003,1.010741e+001
2.792844e+003,1.074089e+001
2.793808e+003,1.213579e+001
2.794772e+003,1.230054e+001
2.795737e+003,1.098044e+001
2.796701e+003,9.918472e+000
2.797665e+003,9.493332e+000
2.798629e+003,8.473694e+000
2.799594e+003,7.823868e+000
2.800558e+003,1.047595e+001
2.801522e+003,1.511790e+001
2.802486e+003,1.557378e+001
2.803450e+003,1.129343e+001
2.804415e+003,8.703003e+000
2.805379e+003,7.799294e+000
2.806343e+003,7.545624e+000
2.807307e+003,8.991974e+000
2.808271e+003,1.040240e+001
2.809236e+003,1.020382e+001
2.810200e+003,1.021910e+001
2.811164e+003,1.107047e+001
2.812128e+003,9.943466e+000
2.813093e+003,6.913887e+000
2.814057e+003,8.099220e+000
2.815021e+003,1.246445e+001
2.815985e+003,1.252827e+001
2.816950e+003,1.020663e+001
2.817914e+003,9.693527e+000
2.818878e+003,1.016213e+001
2.819842e+003,9.632584e+000
2.820807e+003,8.951553e+000
2.821771e+003,1.069820e+001
2.822735e+003,1.364293e+001
2.823699e+003,1.361636e+001
2.824664e+003,1.059188e+001
2.825628e+003,8.199188e+000
2.826592e+003,6.752617e+000
2.827556e+003,6.880333e+000
2.828521e+003,7.771049e+000
2.829485e+003,7.883415e+000
2.830449e+003,7.739014e+000
2.831413e+003,7.506012e+000
2.832377e+003,6.809944e+000
2.833342e+003,5.461182e+000
2.834306e+003,4.080612e+000
2.835270e+003,4.106567e+000
2.836234e+003,5.751617e+000
2.837198e+003,7.407234e+000
2.838163e+003,9.216309e+000
2.839127e+003,1.059559e+001
2.840091e+003,1.155775e+001
2.841055e+003,1.146080e+001
2.842020e+003,1.005142e+001
2.842984e+003,7.882538e+000
2.843948e+003,5.720261e+000
2.844912e+003,5.225960e+000
2.845877e+003,6.498154e+000
2.846841e+003,7.683548e+000
2.847805e+003,8.255699e+000
2.848769e+003,7.907326e+000
2.849734e+003,5.734322e+000
2.850698e+003,4.930954e+000
2.851662e+003,5.546616e+000
2.852626e+003,7.384735e+000
2.853591e+003,1.021270e+001
2.854555e+003,9.686852e+000
2.855519e+003,5.859566e+000
2.856483e+003,3.263741e+000
2.857448e+003,3.006126e+000
2.858412e+003,4.050629e+000
2.859376e+003,6.754028e+000
2.860340e+003,8.103142e+000
2.861304e+003,6.726379e+000
2.862269e+003,6.785904e+000
2.863233e+003,8.023964e+000
2.864197e+003,7.362999e+000
2.865161e+003,5.508972e+000
2.866125e+003,4.649483e+000
2.867090e+003,4.645592e+000
2.868054e+003,5.155579e+000
2.869018e+003,5.729111e+000
2.869982e+003,4.283005e+000
2.870947e+003,5.357437e-001
2.871911e+003,0.000000e+000
2.872875e+003,3.006386e+000
2.873839e+003,4.514130e+000
2.874804e+003,4.644073e+000
2.875768e+003,4.082687e+000
2.876732e+003,3.266495e+000
2.877696e+003,3.662025e+000
2.878661e+003,5.034698e+000
2.879625e+003,5.401711e+000
2.880589e+003,4.465637e+000
2.881553e+003,4.192169e+000
2.882518e+003,5.306351e+000
2.883482e+003,5.971794e+000
2.884446e+003,5.889473e+000
2.885410e+003,6.369904e+000
2.886375e+003,7.369576e+000
2.887339e+003,8.899841e+000
2.888303e+003,1.062964e+001
2.889267e+003,1.085492e+001
2.890231e+003,9.868431e+000
2.891196e+003,1.003339e+001
2.892160e+003,1.154956e+001
2.893124e+003,1.166615e+001
2.894088e+003,9.821564e+000
2.895052e+003,8.257874e+000
2.896017e+003,6.860626e+000
2.896981e+003,7.986168e+000
2.897945e+003,1.110606e+001
2.898909e+003,1.205585e+001
2.899874e+003,1.140037e+001
2.900838e+003,1.252248e+001
2.901802e+003,1.525050e+001
2.902766e+003,1.699886e+001
2.903731e+003,1.749877e+001
2.904695e+003,1.869760e+001
2.905659e+003,2.071365e+001
2.906623e+003,2.043405e+001
2.907588e+003,1.810746e+001
2.908552e+003,1.782703e+001
2.909516e+003,1.947161e+001
2.910480e+003,2.332879e+001
2.911445e+003,2.756122e+001
2.912409e+003,2.750686e+001
2.913373e+003,2.458032e+001
2.914337e+003,2.441702e+001
2.915302e+003,2.701292e+001
2.916266e+003,2.918889e+001
2.917230e+003,3.089864e+001
2.918194e+003,3.141870e+001
2.919158e+003,3.107873e+001
2.920123e+003,3.119437e+001
2.921087e+003,3.174152e+001
2.922051e+003,3.254379e+001
2.923015e+003,3.359572e+001
2.923979e+003,3.513307e+001
2.924944e+003,3.683620e+001
2.925908e+003,3.797971e+001
2.926872e+003,3.869758e+001
2.927836e+003,3.952557e+001
2.928801e+003,4.021203e+001
2.929765e+003,3.868104e+001
2.930729e+003,3.688102e+001
2.931693e+003,4.030562e+001
2.932658e+003,4.510217e+001
2.933622e+003,4.501776e+001
2.934586e+003,4.288991e+001
2.935550e+003,4.339880e+001
2.936515e+003,4.522556e+001
2.937479e+003,4.652713e+001
2.938443e+003,4.734280e+001
2.939407e+003,4.767937e+001
2.940372e+003,4.770138e+001
2.941336e+003,4.732845e+001
2.942300e+003,4.730928e+001
2.943264e+003,4.913492e+001
2.944229e+003,5.118626e+001
2.945193e+003,5.156129e+001
2.946157e+003,5.171900e+001
2.947121e+003,5.300783e+001
2.948085e+003,5.443363e+001
2.949050e+003,5.476588e+001
2.950014e+003,5.494585e+001
2.950978e+003,5.706729e+001
2.951942e+003,5.885087e+001
2.952906e+003,5.661427e+001
2.953871e+003,5.444749e+001
2.954835e+003,5.574686e+001
2.955799e+003,5.756949e+001
2.956763e+003,5.850534e+001
2.957728e+003,5.883068e+001
2.958692e+003,5.865482e+001
2.959656e+003,5.902816e+001
2.960620e+003,6.099100e+001
2.961585e+003,6.304424e+001
2.962549e+003,6.337562e+001
2.963513e+003,6.391606e+001
2.964477e+003,6.638689e+001
2.965442e+003,6.809216e+001
2.966406e+003,6.812526e+001
2.967370e+003,6.780492e+001
2.968334e+003,6.755833e+001
2.969299e+003,6.792489e+001
2.970263e+003,6.909861e+001
2.971227e+003,6.979859e+001
2.972191e+003,6.919322e+001
2.973156e+003,6.835636e+001
2.974120e+003,6.711449e+001
2.975084e+003,6.711754e+001
2.976048e+003,6.884169e+001
2.977012e+003,7.052179e+001
2.977977e+003,7.187444e+001
2.978941e+003,7.266181e+001
2.979905e+003,7.283316e+001
2.980869e+003,7.208704e+001
2.981833e+003,7.061192e+001
2.982798e+003,7.093797e+001
2.983762e+003,7.446635e+001
2.984726e+003,7.623518e+001
2.985690e+003,7.564318e+001
2.986655e+003,7.484697e+001
2.987619e+003,7.398582e+001
2.988583e+003,7.372680e+001
2.989547e+003,7.425637e+001
2.990512e+003,7.653822e+001
2.991476e+003,7.970184e+001
2.992440e+003,8.045021e+001
2.993404e+003,7.873402e+001
2.994369e+003,7.865020e+001
2.995333e+003,8.024882e+001
2.996297e+003,8.291276e+001
2.997261e+003,8.604559e+001
2.998226e+003,8.508126e+001
2.999190e+003,8.205780e+001
3.000154e+003,8.146030e+001
3.001118e+003,8.286375e+001
3.002083e+003,8.557135e+001
3.003047e+003,8.828281e+001
3.004011e+003,8.881441e+001
3.004975e+003,8.803425e+001
3.005939e+003,8.812512e+001
3.006904e+003,8.836147e+001
3.007868e+003,8.568188e+001
3.008832e+003,8.295268e+001
3.009796e+003,8.545769e+001
3.010760e+003,8.896826e+001
3.011725e+003,8.847956e+001
3.012689e+003,8.751768e+001
3.013653e+003,8.927042e+001
3.014617e+003,9.117308e+001
3.015582e+003,9.049255e+001
3.016546e+003,8.976346e+001
3.017510e+003,9.275905e+001
3.018474e+003,9.622179e+001
3.019439e+003,9.754193e+001
3.020403e+003,9.766988e+001
3.021367e+003,9.607324e+001
3.022331e+003,9.515269e+001
3.023296e+003,9.569743e+001
3.024260e+003,9.656230e+001
3.025224e+003,9.721400e+001
3.026188e+003,9.877196e+001
3.027153e+003,1.020525e+002
3.028117e+003,1.042815e+002
3.029081e+003,1.025823e+002
3.030045e+003,1.022437e+002
3.031010e+003,1.048840e+002
3.031974e+003,1.063200e+002
3.032938e+003,1.060690e+002
3.033902e+003,1.053889e+002
3.034866e+003,1.048858e+002
3.035831e+003,1.064183e+002
3.036795e+003,1.098959e+002
3.037759e+003,1.115940e+002
3.038723e+003,1.103848e+002
3.039688e+003,1.089057e+002
3.040652e+003,1.068403e+002
3.041616e+003,1.087674e+002
3.042580e+003,1.137742e+002
3.043544e+003,1.163491e+002
3.044509e+003,1.169519e+002
3.045473e+003,1.177716e+002
3.046437e+003,1.190523e+002
3.047401e+003,1.207236e+002
3.048366e+003,1.223946e+002
3.049330e+003,1.231016e+002
3.050294e+003,1.230272e+002
3.051258e+003,1.223768e+002
3.052223e+003,1.218619e+002
3.053187e+003,1.236390e+002
3.054151e+003,1.260769e+002
3.055115e+003,1.276232e+002
3.056080e+003,1.280785e+002
3.057044e+003,1.269188e+002
3.058008e+003,1.256151e+002
3.058972e+003,1.253463e+002
3.059937e+003,1.261348e+002
3.060901e+003,1.283158e+002
3.061865e+003,1.305401e+002
3.062829e+003,1.306536e+002
3.063793e+003,1.312796e+002
3.064758e+003,1.353307e+002
3.065722e+003,1.377604e+002
3.066686e+003,1.368716e+002
3.067650e+003,1.353815e+002
3.068615e+003,1.344119e+002
3.069579e+003,1.346800e+002
3.070543e+003,1.364944e+002
3.071507e+003,1.378775e+002
3.072471e+003,1.374286e+002
3.073436e+003,1.379084e+002
3.074400e+003,1.402012e+002
3.075364e+003,1.412861e+002
3.076328e+003,1.410344e+002
3.077293e+003,1.409203e+002
3.078257e+003,1.412139e+002
3.079221e+003,1.423933e+002
3.080185e+003,1.438514e+002
3.081150e+003,1.425526e+002
3.082114e+003,1.385863e+002
3.083078e+003,1.378599e+002
3.084042e+003,1.401294e+002
3.085007e+003,1.419335e+002
3.085971e+003,1.433815e+002
3.086935e+003,1.450988e+002
3.087899e+003,1.464273e+002
3.088864e+003,1.460004e+002
3.089828e+003,1.447365e+002
3.090792e+003,1.437561e+002
3.091756e+003,1.433455e+002
3.092720e+003,1.438931e+002
3.093685e+003,1.450610e+002
3.094649e+003,1.466046e+002
3.095613e+003,1.479758e+002
3.096577e+003,1.478873e+002
3.097542e+003,1.483168e+002
3.098506e+003,1.521008e+002
3.099470e+003,1.535488e+002
3.100434e+003,1.500854e+002
3.101398e+003,1.494324e+002
3.102363e+003,1.553168e+002
3.103327e+003,1.594077e+002
3.104291e+003,1.562626e+002
3.105255e+003,1.524814e+002
3.106220e+003,1.495355e+002
3.107184e+003,1.501146e+002
3.108148e+003,1.550324e+002
3.109112e+003,1.575317e+002
3.110077e+003,1.571228e+002
3.111041e+003,1.559384e+002
3.112005e+003,1.550227e+002
3.112969e+003,1.562510e+002
3.113934e+003,1.595530e+002
3.114898e+003,1.619590e+002
3.115862e+003,1.633087e+002
3.116826e+003,1.629647e+002
3.117791e+003,1.615088e+002
3.118755e+003,1.618323e+002
3.119719e+003,1.630427e+002
3.120683e+003,1.633486e+002
3.121647e+003,1.634355e+002
3.122612e+003,1.648744e+002
3.123576e+003,1.662184e+002
3.124540e+003,1.657964e+002
3.125504e+003,1.651594e+002
3.126469e+003,1.665856e+002
3.127433e+003,1.688471e+002
3.128397e+003,1.711452e+002
3.129361e+003,1.727410e+002
3.130325e+003,1.723833e+002
3.131290e+003,1.726639e+002
3.132254e+003,1.745265e+002
3.133218e+003,1.752987e+002
3.134182e+003,1.740770e+002
3.135147e+003,1.733694e+002
3.136111e+003,1.743893e+002
3.137075e+003,1.752653e+002
3.138039e+003,1.749087e+002
3.139004e+003,1.756977e+002
3.139968e+003,1.779340e+002
3.140932e+003,1.781038e+002
3.141896e+003,1.766342e+002
3.142861e+003,1.766289e+002
3.143825e+003,1.781055e+002
3.144789e+003,1.797684e+002
3.145753e+003,1.815960e+002
3.146718e+003,1.843529e+002
3.147682e+003,1.875858e+002
3.148646e+003,1.899850e+002
3.149610e+003,1.912859e+002
3.150574e+003,1.901336e+002
3.151539e+003,1.881291e+002
3.152503e+003,1.864377e+002
3.153467e+003,1.860184e+002
3.154431e+003,1.879601e+002
3.155396e+003,1.900028e+002
3.156360e+003,1.906143e+002
3.157324e+003,1.916160e+002
3.158288e+003,1.948843e+002
3.159252e+003,1.971366e+002
3.160217e+003,1.944610e+002
3.161181e+003,1.929768e+002
3.162145e+003,1.944465e+002
3.163109e+003,1.955739e+002
3.164074e+003,1.959261e+002
3.165038e+003,1.962563e+002
3.166002e+003,1.968449e+002
3.166966e+003,1.984392e+002
3.167931e+003,2.008346e+002
3.168895e+003,2.000179e+002
3.169859e+003,1.960274e+002
3.170823e+003,1.976830e+002
3.171788e+003,2.035301e+002
3.172752e+003,2.050316e+002
3.173716e+003,2.040798e+002
3.174680e+003,2.042375e+002
3.175645e+003,2.050939e+002
3.176609e+003,2.060529e+002
3.177573e+003,2.063781e+002
3.178537e+003,2.052722e+002
3.179501e+003,2.035394e+002
3.180466e+003,2.018569e+002
3.181430e+003,2.011378e+002
3.182394e+003,2.034385e+002
3.183358e+003,2.051217e+002
3.184323e+003,2.039664e+002
3.185287e+003,2.037169e+002
3.186251e+003,2.052326e+002
3.187215e+003,2.066901e+002
3.188179e+003,2.075193e+002
3.189144e+003,2.088472e+002
3.190108e+003,2.111094e+002
3.191072e+003,2.110608e+002
3.192036e+003,2.078234e+002
3.193001e+003,2.052623e+002
3.193965e+003,2.037432e+002
3.194929e+003,2.075659e+002
3.195893e+003,2.137042e+002
3.196858e+003,2.154263e+002
3.197822e+003,2.137491e+002
3.198786e+003,2.104956e+002
3.199750e+003,2.085136e+002
3.200715e+003,2.121739e+002
3.201679e+003,2.175338e+002
3.202643e+003,2.171781e+002
3.203607e+003,2.150354e+002
3.204572e+003,2.142070e+002
3.205536e+003,2.143353e+002
3.206500e+003,2.155445e+002
3.207464e+003,2.166107e+002
3.208428e+003,2.171460e+002
3.209393e+003,2.173708e+002
3.210357e+003,2.174116e+002
3.211321e+003,2.174352e+002
3.212285e+003,2.174013e+002
3.213250e+003,2.183173e+002
3.214214e+003,2.204462e+002
3.215178e+003,2.218724e+002
3.216142e+003,2.225133e+002
3.217106e+003,2.219133e+002
3.218071e+003,2.207050e+002
3.219035e+003,2.196688e+002
3.219999e+003,2.196626e+002
3.220963e+003,2.220695e+002
3.221928e+003,2.255164e+002
3.222892e+003,2.276315e+002
3.223856e+003,2.287912e+002
3.224820e+003,2.297228e+002
3.225785e+003,2.298960e+002
3.226749e+003,2.273633e+002
3.227713e+003,2.268371e+002
3.228677e+003,2.305298e+002
3.229642e+003,2.321253e+002
3.230606e+003,2.294933e+002
3.231570e+003,2.287915e+002
3.232534e+003,2.329171e+002
3.233499e+003,2.356521e+002
3.234463e+003,2.342712e+002
3.235427e+003,2.343670e+002
3.236391e+003,2.357980e+002
3.237355e+003,2.336754e+002
3.238320e+003,2.300104e+002
3.239284e+003,2.316451e+002
3.240248e+003,2.365141e+002
3.241212e+003,2.404132e+002
3.242177e+003,2.413792e+002
3.243141e+003,2.359605e+002
3.244105e+003,2.293077e+002
3.245069e+003,2.320033e+002
3.246033e+003,2.373333e+002
3.246998e+003,2.387259e+002
3.247962e+003,2.397871e+002
3.248926e+003,2.420560e+002
3.249890e+003,2.450266e+002
3.250855e+003,2.484303e+002
3.251819e+003,2.492710e+002
3.252783e+003,2.467288e+002
3.253747e+003,2.453277e+002
3.254712e+003,2.470042e+002
3.255676e+003,2.474872e+002
3.256640e+003,2.465704e+002
3.257604e+003,2.447431e+002
3.258569e+003,2.430752e+002
3.259533e+003,2.459234e+002
3.260497e+003,2.505711e+002
3.261461e+003,2.516263e+002
3.262426e+003,2.510195e+002
3.263390e+003,2.516494e+002
3.264354e+003,2.528948e+002
3.265318e+003,2.537497e+002
3.266282e+003,2.550816e+002
3.267247e+003,2.587718e+002
3.268211e+003,2.616634e+002
3.269175e+003,2.623204e+002
3.270139e+003,2.620724e+002
3.271104e+003,2.612430e+002
3.272068e+003,2.616676e+002
3.273032e+003,2.634276e+002
3.273996e+003,2.632635e+002
3.274960e+003,2.604728e+002
3.275925e+003,2.613439e+002
3.276889e+003,2.659120e+002
3.277853e+003,2.670029e+002
3.278817e+003,2.662094e+002
3.279782e+003,2.687403e+002
3.280746e+003,2.716580e+002
3.281710e+003,2.692043e+002
3.282674e+003,2.665557e+002
3.283639e+003,2.685459e+002
3.284603e+003,2.707205e+002
3.285567e+003,2.685628e+002
3.286531e+003,2.669456e+002
3.287496e+003,2.721884e+002
3.288460e+003,2.751200e+002
3.289424e+003,2.725592e+002
3.290388e+003,2.712806e+002
3.291353e+003,2.719533e+002
3.292317e+003,2.727500e+002
3.293281e+003,2.733264e+002
3.294245e+003,2.738541e+002
3.295209e+003,2.745985e+002
3.296174e+003,2.764388e+002
3.297138e+003,2.789831e+002
3.298102e+003,2.808341e+002
3.299066e+003,2.819211e+002
3.300031e+003,2.815420e+002
3.300995e+003,2.809987e+002
3.301959e+003,2.812399e+002
3.302923e+003,2.825514e+002
3.303887e+003,2.852489e+002
3.304852e+003,2.865010e+002
3.305816e+003,2.846732e+002
3.306780e+003,2.829279e+002
3.307744e+003,2.829627e+002
3.308709e+003,2.834511e+002
3.309673e+003,2.843219e+002
3.310637e+003,2.836922e+002
3.311601e+003,2.829234e+002
3.312566e+003,2.905488e+002
3.313530e+003,3.012134e+002
3.314494e+003,3.003240e+002
3.315458e+003,2.932251e+002
3.316423e+003,2.901250e+002
3.317387e+003,2.901150e+002
3.318351e+003,2.928851e+002
3.319315e+003,2.956914e+002
3.320280e+003,2.955068e+002
3.321244e+003,2.946122e+002
3.322208e+003,2.936141e+002
3.323172e+003,2.934906e+002
3.324136e+003,2.943400e+002
3.325101e+003,2.939246e+002
3.326065e+003,2.921014e+002
3.327029e+003,2.934381e+002
3.327993e+003,2.989843e+002
3.328958e+003,3.032784e+002
3.329922e+003,3.061482e+002
3.330886e+003,3.054959e+002
3.331850e+003,3.032155e+002
3.332814e+003,3.022254e+002
3.333779e+003,3.019660e+002
3.334743e+003,3.014475e+002
3.335707e+003,3.019517e+002
3.336671e+003,3.045273e+002
3.337636e+003,3.063704e+002
3.338600e+003,3.045141e+002
3.339564e+003,3.040058e+002
3.340528e+003,3.087644e+002
3.341493e+003,3.105347e+002
3.342457e+003,3.091822e+002
3.343421e+003,3.102540e+002
3.344385e+003,3.134803e+002
3.345350e+003,3.160610e+002
3.346314e+003,3.174267e+002
3.347278e+003,3.176893e+002
3.348242e+003,3.170130e+002
3.349207e+003,3.149864e+002
3.350171e+003,3.134320e+002
3.351135e+003,3.165636e+002
3.352099e+003,3.195058e+002
3.353063e+003,3.181226e+002
3.354028e+003,3.176726e+002
3.354992e+003,3.194762e+002
3.355956e+003,3.204601e+002
3.356920e+003,3.198427e+002
3.357885e+003,3.209643e+002
3.358849e+003,3.249809e+002
3.359813e+003,3.257029e+002
3.360777e+003,3.232338e+002
3.361741e+003,3.240316e+002
3.362706e+003,3.262924e+002
3.363670e+003,3.257129e+002
3.364634e+003,3.247803e+002
3.365598e+003,3.270519e+002
3.366563e+003,3.294952e+002
3.367527e+003,3.299961e+002
3.368491e+003,3.296642e+002
3.369455e+003,3.290348e+002
3.370420e+003,3.296643e+002
3.371384e+003,3.335688e+002
3.372348e+003,3.362032e+002
3.373312e+003,3.374284e+002
3.374277e+003,3.379884e+002
3.375241e+003,3.381252e+002
3.376205e+003,3.378420e+002
3.377169e+003,3.376841e+002
3.378134e+003,3.389970e+002
3.379098e+003,3.405473e+002
3.380062e+003,3.396107e+002
3.381026e+003,3.383574e+002
3.381990e+003,3.406230e+002
3.382955e+003,3.424356e+002
3.383919e+003,3.411953e+002
3.384883e+003,3.407374e+002
3.385847e+003,3.418457e+002
3.386812e+003,3.430318e+002
3.387776e+003,3.437522e+002
3.388740e+003,3.438945e+002
3.389704e+003,3.434272e+002
3.390668e+003,3.426079e+002
3.391633e+003,3.416886e+002
3.392597e+003,3.422688e+002
3.393561e+003,3.437549e+002
3.394525e+003,3.460172e+002
3.395490e+003,3.476163e+002
3.396454e+003,3.474773e+002
3.397418e+003,3.471966e+002
3.398382e+003,3.476721e+002
3.399347e+003,3.486097e+002
3.400311e+003,3.499156e+002
3.401275e+003,3.512106e+002
3.402239e+003,3.525939e+002
3.403204e+003,3.527204e+002
3.404168e+003,3.518959e+002
3.405132e+003,3.512701e+002
3.406096e+003,3.511541e+002
3.407061e+003,3.523000e+002
3.408025e+003,3.536337e+002
3.408989e+003,3.539680e+002
3.409953e+003,3.536983e+002
3.410917e+003,3.533195e+002
3.411882e+003,3.524955e+002
3.412846e+003,3.495117e+002
3.413810e+003,3.494911e+002
3.414774e+003,3.532300e+002
3.415739e+003,3.555400e+002
3.416703e+003,3.559844e+002
3.417667e+003,3.561867e+002
3.418631e+003,3.569509e+002
3.419595e+003,3.601234e+002
3.420560e+003,3.636658e+002
3.421524e+003,3.612552e+002
3.422488e+003,3.567886e+002
3.423452e+003,3.560928e+002
3.424417e+003,3.570807e+002
3.425381e+003,3.593660e+002
3.426345e+003,3.601073e+002
3.427309e+003,3.587156e+002
3.428274e+003,3.588623e+002
3.429238e+003,3.615364e+002
3.430202e+003,3.638050e+002
3.431166e+003,3.649809e+002
3.432131e+003,3.647469e+002
3.433095e+003,3.635084e+002
3.434059e+003,3.618335e+002
3.435023e+003,3.616948e+002
3.435988e+003,3.681649e+002
3.436952e+003,3.735796e+002
3.437916e+003,3.731122e+002
3.438880e+003,3.721750e+002
3.439844e+003,3.739561e+002
3.440809e+003,3.746338e+002
3.441773e+003,3.716836e+002
3.442737e+003,3.690049e+002
3.443701e+003,3.668304e+002
3.444666e+003,3.681566e+002
3.445630e+003,3.719128e+002
3.446594e+003,3.767023e+002
3.447558e+003,3.797745e+002
3.448522e+003,3.763846e+002
3.449487e+003,3.743416e+002
3.450451e+003,3.818343e+002
3.451415e+003,3.887619e+002
3.452379e+003,3.830010e+002
3.453344e+003,3.793454e+002
3.454308e+003,3.820706e+002
3.455272e+003,3.850517e+002
3.456236e+003,3.876480e+002
3.457201e+003,3.900993e+002
3.458165e+003,3.919522e+002
3.459129e+003,3.918040e+002
3.460093e+003,3.900033e+002
3.461058e+003,3.866884e+002
3.462022e+003,3.838662e+002
3.462986e+003,3.854147e+002
3.463950e+003,3.881115e+002
3.464915e+003,3.897609e+002
3.465879e+003,3.925977e+002
3.466843e+003,3.969043e+002
3.467807e+003,4.006917e+002
3.468771e+003,4.032217e+002
3.469736e+003,4.032270e+002
3.470700e+003,4.012650e+002
3.471664e+003,4.012546e+002
3.472628e+003,4.024467e+002
3.473593e+003,4.020462e+002
3.474557e+003,4.021275e+002
3.475521e+003,4.056873e+002
3.476485e+003,4.096263e+002
3.477449e+003,4.128918e+002
3.478414e+003,4.138246e+002
3.479378e+003,4.124738e+002
3.480342e+003,4.145650e+002
3.481306e+003,4.217968e+002
3.482271e+003,4.236314e+002
3.483235e+003,4.205921e+002
3.484199e+003,4.203018e+002
3.485163e+003,4.213793e+002
3.486128e+003,4.221536e+002
3.487092e+003,4.220566e+002
3.488056e+003,4.203411e+002
3.489020e+003,4.211797e+002
3.489985e+003,4.265697e+002
3.490949e+003,4.296810e+002
3.491913e+003,4.263263e+002
3.492877e+003,4.259412e+002
3.493842e+003,4.293352e+002
3.494806e+003,4.297766e+002
3.495770e+003,4.284351e+002
3.496734e+003,4.274472e+002
3.497698e+003,4.281564e+002
3.498663e+003,4.321736e+002
3.499627e+003,4.363686e+002
3.500591e+003,0.000000e+000
