9.974011e+001,4.235232e+002
1.007043e+002,4.247013e+002
1.016686e+002,4.252732e+002
1.026328e+002,4.244283e+002
1.035970e+002,4.240844e+002
1.045613e+002,4.256971e+002
1.055255e+002,4.278647e+002
1.064897e+002,4.276764e+002
1.074540e+002,4.224190e+002
1.084182e+002,4.170215e+002
1.093824e+002,4.108864e+002
1.103467e+002,4.043411e+002
1.113109e+002,3.990028e+002
1.122751e+002,3.990851e+002
1.132394e+002,4.006039e+002
1.142036e+002,4.013111e+002
1.151678e+002,3.999293e+002
1.161321e+002,3.974156e+002
1.170963e+002,3.974354e+002
1.180605e+002,3.986073e+002
1.190248e+002,3.990644e+002
1.199890e+002,3.970280e+002
1.209532e+002,3.922271e+002
1.219175e+002,3.891973e+002
1.228817e+002,3.883179e+002
1.238459e+002,3.887976e+002
1.248102e+002,3.891604e+002
1.257744e+002,3.901872e+002
1.267386e+002,3.897606e+002
1.277029e+002,3.867724e+002
1.286671e+002,3.815192e+002
1.296313e+002,3.758768e+002
1.305956e+002,3.706671e+002
1.315598e+002,3.662665e+002
1.325240e+002,3.628730e+002
1.334883e+002,3.607130e+002
1.344525e+002,3.601237e+002
1.354167e+002,3.621172e+002
1.363810e+002,3.653745e+002
1.373452e+002,3.684542e+002
1.383094e+002,3.701464e+002
1.392737e+002,3.702348e+002
1.402379e+002,3.690647e+002
1.412021e+002,3.661558e+002
1.421664e+002,3.623324e+002
1.431306e+002,3.588555e+002
1.440948e+002,3.561023e+002
1.450591e+002,3.538981e+002
1.460233e+002,3.520352e+002
1.469875e+002,3.504245e+002
1.479518e+002,3.490194e+002
1.489160e+002,3.475938e+002
1.498802e+002,3.463237e+002
1.508445e+002,3.461117e+002
1.518087e+002,3.470680e+002
1.527729e+002,3.484161e+002
1.537372e+002,3.466928e+002
1.547014e+002,3.431770e+002
1.556656e+002,3.399205e+002
1.566299e+002,3.383523e+002
1.575941e+002,3.389886e+002
1.585583e+002,3.378735e+002
1.595226e+002,3.343141e+002
1.604868e+002,3.305056e+002
1.614510e+002,3.286979e+002
1.624153e+002,3.304772e+002
1.633795e+002,3.303892e+002
1.643438e+002,3.268904e+002
1.653080e+002,3.222205e+002
1.662722e+002,3.196381e+002
1.672365e+002,3.234423e+002
1.682007e+002,3.268604e+002
1.691649e+002,3.262198e+002
1.701292e+002,3.222910e+002
1.710934e+002,3.178860e+002
1.720576e+002,3.191829e+002
1.730219e+002,3.230363e+002
1.739861e+002,3.251147e+002
1.749503e+002,3.237297e+002
1.759146e+002,3.187831e+002
1.768788e+002,3.146996e+002
1.778430e+002,3.120863e+002
1.788073e+002,3.108333e+002
1.797715e+002,3.115373e+002
1.807357e+002,3.154255e+002
1.817000e+002,3.172802e+002
1.826642e+002,3.151101e+002
1.836284e+002,3.114371e+002
1.845927e+002,3.080014e+002
1.855569e+002,3.056599e+002
1.865211e+002,3.036795e+002
1.874854e+002,3.023933e+002
1.884496e+002,3.016831e+002
1.894138e+002,3.012953e+002
1.903781e+002,3.007599e+002
1.913423e+002,3.001816e+002
1.923065e+002,2.995323e+002
1.932708e+002,2.985549e+002
1.942350e+002,2.971099e+002
1.951992e+002,2.953823e+002
1.961635e+002,2.934308e+002
1.971277e+002,2.921459e+002
1.980919e+002,2.921867e+002
1.990562e+002,2.935372e+002
2.000204e+002,2.940450e+002
2.009846e+002,2.926771e+002
2.019489e+002,2.909405e+002
2.029131e+002,2.890830e+002
2.038773e+002,2.872627e+002
2.048416e+002,2.861270e+002
2.058058e+002,2.864897e+002
2.067700e+002,2.873857e+002
2.077343e+002,2.882473e+002
2.086985e+002,2.886520e+002
2.096627e+002,2.885930e+002
2.106270e+002,2.885085e+002
2.115912e+002,2.883874e+002
2.125554e+002,2.877454e+002
2.135197e+002,2.859191e+002
2.144839e+002,2.816897e+002
2.154481e+002,2.788622e+002
2.164124e+002,2.780434e+002
2.173766e+002,2.785811e+002
2.183408e+002,2.794319e+002
2.193051e+002,2.808726e+002
2.202693e+002,2.818253e+002
2.212335e+002,2.819650e+002
2.221978e+002,2.813319e+002
2.231620e+002,2.800890e+002
2.241262e+002,2.778524e+002
2.250904e+002,2.762419e+002
2.260547e+002,2.763097e+002
2.270189e+002,2.778465e+002
2.279831e+002,2.798859e+002
2.289474e+002,2.801071e+002
2.299116e+002,2.791536e+002
2.308758e+002,2.783919e+002
2.318401e+002,2.784260e+002
2.328043e+002,2.793954e+002
2.337685e+002,2.800139e+002
2.347328e+002,2.793871e+002
2.356970e+002,2.782653e+002
2.366612e+002,2.768842e+002
2.376255e+002,2.753434e+002
2.385897e+002,2.745723e+002
2.395539e+002,2.752794e+002
2.405182e+002,2.764137e+002
2.414824e+002,2.774700e+002
2.424466e+002,2.781821e+002
2.434109e+002,2.783942e+002
2.443751e+002,2.775451e+002
2.453393e+002,2.760524e+002
2.463036e+002,2.745187e+002
2.472678e+002,2.736261e+002
2.482320e+002,2.737148e+002
2.491963e+002,2.743458e+002
2.501605e+002,2.754924e+002
2.511247e+002,2.767439e+002
2.520890e+002,2.774488e+002
2.530532e+002,2.764997e+002
2.540174e+002,2.765456e+002
2.549817e+002,2.787003e+002
2.559459e+002,2.820408e+002
2.569102e+002,2.847338e+002
2.578744e+002,2.850550e+002
2.588386e+002,2.841061e+002
2.598029e+002,2.822075e+002
2.607671e+002,2.800016e+002
2.617313e+002,2.783578e+002
2.626956e+002,2.787319e+002
2.636598e+002,2.803281e+002
2.646240e+002,2.819120e+002
2.655883e+002,2.830489e+002
2.665525e+002,2.836165e+002
2.675167e+002,2.838563e+002
2.684810e+002,2.840693e+002
2.694452e+002,2.843574e+002
2.704094e+002,2.846074e+002
2.713737e+002,2.847897e+002
2.723379e+002,2.855603e+002
2.733021e+002,2.873112e+002
2.742664e+002,2.887379e+002
2.752306e+002,2.893466e+002
2.761948e+002,2.890880e+002
2.771591e+002,2.889531e+002
2.781233e+002,2.904094e+002
2.790875e+002,2.921979e+002
2.800518e+002,2.932860e+002
2.810160e+002,2.930768e+002
2.819802e+002,2.919828e+002
2.829445e+002,2.914831e+002
2.839087e+002,2.914778e+002
2.848729e+002,2.919305e+002
2.858372e+002,2.928715e+002
2.868014e+002,2.945201e+002
2.877656e+002,2.958177e+002
2.887299e+002,2.963842e+002
2.896941e+002,2.964438e+002
2.906583e+002,2.962866e+002
2.916226e+002,2.962070e+002
2.925868e+002,2.960586e+002
2.935510e+002,2.954273e+002
2.945153e+002,2.948755e+002
2.954795e+002,2.948929e+002
2.964437e+002,2.958265e+002
2.974080e+002,2.968403e+002
2.983722e+002,2.975623e+002
2.993364e+002,2.981335e+002
3.003007e+002,2.985410e+002
3.012649e+002,2.986549e+002
3.022291e+002,2.983509e+002
3.031934e+002,2.984583e+002
3.041576e+002,2.991664e+002
3.051218e+002,3.001809e+002
3.060861e+002,3.009477e+002
3.070503e+002,3.012025e+002
3.080145e+002,3.004493e+002
3.089788e+002,2.979659e+002
3.099430e+002,2.951911e+002
3.109072e+002,2.943706e+002
3.118715e+002,2.980198e+002
3.128357e+002,3.021848e+002
3.137999e+002,3.054843e+002
3.147642e+002,3.074130e+002
3.157284e+002,3.076549e+002
3.166926e+002,3.054729e+002
3.176569e+002,3.026743e+002
3.186211e+002,3.013102e+002
3.195853e+002,3.014894e+002
3.205496e+002,3.028762e+002
3.215138e+002,3.048776e+002
3.224780e+002,3.077674e+002
3.234423e+002,3.098481e+002
3.244065e+002,3.107868e+002
3.253707e+002,3.108386e+002
3.263350e+002,3.108714e+002
3.272992e+002,3.111838e+002
3.282634e+002,3.117288e+002
3.292277e+002,3.123060e+002
3.301919e+002,3.129603e+002
3.311561e+002,3.139534e+002
3.321204e+002,3.160367e+002
3.330846e+002,3.178356e+002
3.340488e+002,3.184156e+002
3.350131e+002,3.178129e+002
3.359773e+002,3.166982e+002
3.369415e+002,3.167228e+002
3.379058e+002,3.177540e+002
3.388700e+002,3.184261e+002
3.398342e+002,3.183791e+002
3.407985e+002,3.177835e+002
3.417627e+002,3.176695e+002
3.427269e+002,3.173462e+002
3.436912e+002,3.174831e+002
3.446554e+002,3.190204e+002
3.456196e+002,3.217855e+002
3.465839e+002,3.236384e+002
3.475481e+002,3.219403e+002
3.485123e+002,3.207913e+002
3.494765e+002,3.217137e+002
3.504408e+002,3.245187e+002
3.514050e+002,3.274178e+002
3.523692e+002,3.278902e+002
3.533335e+002,3.274357e+002
3.542977e+002,3.273018e+002
3.552619e+002,3.279245e+002
3.562262e+002,3.291709e+002
3.571904e+002,3.300228e+002
3.581546e+002,3.301166e+002
3.591189e+002,3.300686e+002
3.600831e+002,3.300048e+002
3.610473e+002,3.298493e+002
3.620116e+002,3.292473e+002
3.629758e+002,3.272716e+002
3.639400e+002,3.263013e+002
3.649043e+002,3.276926e+002
3.658685e+002,3.311510e+002
3.668327e+002,3.342061e+002
3.677970e+002,3.343535e+002
3.687612e+002,3.337372e+002
3.697254e+002,3.329693e+002
3.706897e+002,3.323389e+002
3.716539e+002,3.318681e+002
3.726181e+002,3.314608e+002
3.735824e+002,3.309610e+002
3.745466e+002,3.310783e+002
3.755108e+002,3.323729e+002
3.764751e+002,3.347392e+002
3.774393e+002,3.356387e+002
3.784035e+002,3.326923e+002
3.793678e+002,3.307598e+002
3.803320e+002,3.317078e+002
3.812962e+002,3.351349e+002
3.822605e+002,3.376000e+002
3.832247e+002,3.361678e+002
3.841889e+002,3.345757e+002
3.851532e+002,3.337498e+002
3.861174e+002,3.338693e+002
3.870816e+002,3.345186e+002
3.880459e+002,3.354413e+002
3.890101e+002,3.365064e+002
3.899743e+002,3.379095e+002
3.909386e+002,3.396714e+002
3.919028e+002,3.414363e+002
3.928670e+002,3.415816e+002
3.938313e+002,3.389485e+002
3.947955e+002,3.370504e+002
3.957597e+002,3.370502e+002
3.967240e+002,3.386087e+002
3.976882e+002,3.396295e+002
3.986524e+002,3.395307e+002
3.996167e+002,3.395906e+002
4.005809e+002,3.395550e+002
4.015451e+002,3.394312e+002
4.025094e+002,3.394800e+002
4.034736e+002,3.405677e+002
4.044378e+002,3.421464e+002
4.054021e+002,3.435105e+002
4.063663e+002,3.445492e+002
4.073305e+002,3.454540e+002
4.082948e+002,3.467769e+002
4.092590e+002,3.483580e+002
4.102232e+002,3.489113e+002
4.111875e+002,3.480897e+002
4.121517e+002,3.463651e+002
4.131159e+002,3.449592e+002
4.140802e+002,3.442602e+002
4.150444e+002,3.448821e+002
4.160086e+002,3.474058e+002
4.169729e+002,3.508250e+002
4.179371e+002,3.534525e+002
4.189013e+002,3.534631e+002
4.198656e+002,3.528377e+002
4.208298e+002,3.531440e+002
4.217940e+002,3.540000e+002
4.227583e+002,3.547339e+002
4.237225e+002,3.547228e+002
4.246867e+002,3.547960e+002
4.256510e+002,3.558630e+002
4.266152e+002,3.574999e+002
4.275794e+002,3.588506e+002
4.285437e+002,3.589574e+002
4.295079e+002,3.572768e+002
4.304721e+002,3.564466e+002
4.314364e+002,3.571158e+002
4.324006e+002,3.585760e+002
4.333648e+002,3.600489e+002
4.343291e+002,3.612256e+002
4.352933e+002,3.618340e+002
4.362575e+002,3.621316e+002
4.372218e+002,3.621209e+002
4.381860e+002,3.614865e+002
4.391502e+002,3.599518e+002
4.401145e+002,3.589016e+002
4.410787e+002,3.607952e+002
4.420429e+002,3.643132e+002
4.430072e+002,3.676168e+002
4.439714e+002,3.693318e+002
4.449356e+002,3.693016e+002
4.458999e+002,3.696125e+002
4.468641e+002,3.705689e+002
4.478283e+002,3.713766e+002
4.487926e+002,3.717189e+002
4.497568e+002,3.717477e+002
4.507210e+002,3.721610e+002
4.516853e+002,3.720287e+002
4.526495e+002,3.718388e+002
4.536137e+002,3.721492e+002
4.545780e+002,3.730747e+002
4.555422e+002,3.738496e+002
4.565064e+002,3.739510e+002
4.574707e+002,3.739745e+002
4.584349e+002,3.739120e+002
4.593991e+002,3.736305e+002
4.603634e+002,3.729488e+002
4.613276e+002,3.718135e+002
4.622918e+002,3.704856e+002
4.632561e+002,3.691927e+002
4.642203e+002,3.679697e+002
4.651845e+002,3.668794e+002
4.661488e+002,3.661058e+002
4.671130e+002,3.651601e+002
4.680772e+002,3.646447e+002
4.690415e+002,3.655195e+002
4.700057e+002,3.670691e+002
4.709699e+002,3.676538e+002
4.719342e+002,3.655408e+002
4.728984e+002,3.635637e+002
4.738626e+002,3.631200e+002
4.748269e+002,3.636057e+002
4.757911e+002,3.641915e+002
4.767553e+002,3.642371e+002
4.777196e+002,3.640297e+002
4.786838e+002,3.637813e+002
4.796480e+002,3.632008e+002
4.806123e+002,3.622946e+002
4.815765e+002,3.612891e+002
4.825407e+002,3.606869e+002
4.835050e+002,3.595871e+002
4.844692e+002,3.573003e+002
4.854334e+002,3.552831e+002
4.863977e+002,3.543906e+002
4.873619e+002,3.545379e+002
4.883261e+002,3.542356e+002
4.892904e+002,3.539271e+002
4.902546e+002,3.538701e+002
4.912188e+002,3.539667e+002
4.921831e+002,3.539915e+002
4.931473e+002,3.536767e+002
4.941115e+002,3.525084e+002
4.950758e+002,3.511031e+002
4.960400e+002,3.501964e+002
4.970042e+002,3.501284e+002
4.979685e+002,3.507762e+002
4.989327e+002,3.511668e+002
4.998969e+002,3.505286e+002
5.008612e+002,3.499177e+002
5.018254e+002,3.496698e+002
5.027896e+002,3.495301e+002
5.037539e+002,3.487239e+002
5.047181e+002,3.462134e+002
5.056823e+002,3.452910e+002
5.066466e+002,3.478469e+002
5.076108e+002,3.520388e+002
5.085750e+002,3.549646e+002
5.095393e+002,3.540888e+002
5.105035e+002,3.511715e+002
5.114677e+002,3.485085e+002
5.124320e+002,3.467171e+002
5.133962e+002,3.467885e+002
5.143605e+002,3.495676e+002
5.153247e+002,3.548170e+002
5.162889e+002,3.577383e+002
5.172532e+002,3.580810e+002
5.182174e+002,3.581546e+002
5.191816e+002,3.594921e+002
5.201459e+002,3.622011e+002
5.211101e+002,3.648395e+002
5.220743e+002,3.664262e+002
5.230386e+002,3.682908e+002
5.240028e+002,3.717144e+002
5.249670e+002,3.770320e+002
5.259313e+002,3.830268e+002
5.268955e+002,3.874141e+002
5.278597e+002,3.912058e+002
5.288240e+002,3.951366e+002
5.297882e+002,3.995735e+002
5.307524e+002,4.048917e+002
5.317167e+002,4.121834e+002
5.326809e+002,4.221652e+002
5.336451e+002,4.294944e+002
5.346094e+002,4.320754e+002
5.355736e+002,4.318272e+002
5.365378e+002,4.328805e+002
5.375021e+002,4.366257e+002
5.384663e+002,4.413348e+002
5.394305e+002,4.474139e+002
5.403948e+002,4.537299e+002
5.413590e+002,4.591216e+002
5.423232e+002,4.628104e+002
5.432875e+002,4.654442e+002
5.442517e+002,4.681546e+002
5.452159e+002,4.715402e+002
5.461802e+002,4.757720e+002
5.471444e+002,4.805310e+002
5.481086e+002,4.849109e+002
5.490729e+002,4.874781e+002
5.500371e+002,4.892823e+002
5.510013e+002,4.909419e+002
5.519656e+002,4.924986e+002
5.529298e+002,4.939875e+002
5.538940e+002,4.959624e+002
5.548583e+002,4.992442e+002
5.558225e+002,5.003477e+002
5.567867e+002,4.977479e+002
5.577510e+002,4.931817e+002
5.587152e+002,4.901107e+002
5.596794e+002,4.914557e+002
5.606437e+002,4.933743e+002
5.616079e+002,4.928600e+002
5.625721e+002,4.907858e+002
5.635364e+002,4.886400e+002
5.645006e+002,4.876686e+002
5.654648e+002,4.871191e+002
5.664291e+002,4.844178e+002
5.673933e+002,4.805250e+002
5.683575e+002,4.774969e+002
5.693218e+002,4.765578e+002
5.702860e+002,4.773316e+002
5.712502e+002,4.757052e+002
5.722145e+002,4.708457e+002
5.731787e+002,4.651505e+002
5.741429e+002,4.590843e+002
5.751072e+002,4.532842e+002
5.760714e+002,4.490056e+002
5.770356e+002,4.475154e+002
5.779999e+002,4.473852e+002
5.789641e+002,4.484040e+002
5.799283e+002,4.494869e+002
5.808926e+002,4.489590e+002
5.818568e+002,4.449468e+002
5.828210e+002,4.379855e+002
5.837853e+002,4.326911e+002
5.847495e+002,4.292941e+002
5.857137e+002,4.266304e+002
5.866780e+002,4.233713e+002
5.876422e+002,4.190355e+002
5.886064e+002,4.159106e+002
5.895707e+002,4.146779e+002
5.905349e+002,4.137884e+002
5.914991e+002,4.125116e+002
5.924634e+002,4.106013e+002
5.934276e+002,4.081233e+002
5.943918e+002,4.049473e+002
5.953560e+002,4.017995e+002
5.963203e+002,3.989765e+002
5.972845e+002,3.962879e+002
5.982487e+002,3.932603e+002
5.992130e+002,3.894565e+002
6.001772e+002,3.855023e+002
6.011414e+002,3.821315e+002
6.021057e+002,3.787031e+002
6.030699e+002,3.749158e+002
6.040341e+002,3.709776e+002
6.049984e+002,3.677922e+002
6.059626e+002,3.630247e+002
6.069268e+002,3.555886e+002
6.078911e+002,3.491470e+002
6.088553e+002,3.458067e+002
6.098195e+002,3.454540e+002
6.107838e+002,3.450652e+002
6.117480e+002,3.437266e+002
6.127122e+002,3.417134e+002
6.136765e+002,3.384394e+002
6.146407e+002,3.339455e+002
6.156049e+002,3.287542e+002
6.165692e+002,3.237400e+002
6.175334e+002,3.192106e+002
6.184976e+002,3.156851e+002
6.194619e+002,3.135199e+002
6.204261e+002,3.118613e+002
6.213903e+002,3.093678e+002
6.223546e+002,3.050878e+002
6.233188e+002,3.017986e+002
6.242830e+002,3.003069e+002
6.252473e+002,2.986006e+002
6.262115e+002,2.953277e+002
6.271757e+002,2.904379e+002
6.281400e+002,2.858274e+002
6.291042e+002,2.830563e+002
6.300684e+002,2.810395e+002
6.310327e+002,2.795996e+002
6.319969e+002,2.784700e+002
6.329611e+002,2.772582e+002
6.339254e+002,2.754290e+002
6.348896e+002,2.725156e+002
6.358538e+002,2.684171e+002
6.368181e+002,2.630479e+002
6.377823e+002,2.576014e+002
6.387465e+002,2.532898e+002
6.397108e+002,2.503179e+002
6.406750e+002,2.481073e+002
6.416392e+002,2.464035e+002
6.426035e+002,2.447711e+002
6.435677e+002,2.434546e+002
6.445319e+002,2.424413e+002
6.454962e+002,2.409488e+002
6.464604e+002,2.378111e+002
6.474246e+002,2.344835e+002
6.483889e+002,2.319637e+002
6.493531e+002,2.299308e+002
6.503173e+002,2.274014e+002
6.512816e+002,2.232711e+002
6.522458e+002,2.177760e+002
6.532100e+002,2.137590e+002
6.541743e+002,2.115214e+002
6.551385e+002,2.101987e+002
6.561027e+002,2.093172e+002
6.570670e+002,2.089644e+002
6.580312e+002,2.073254e+002
6.589954e+002,2.026555e+002
6.599597e+002,1.979635e+002
6.609239e+002,1.947989e+002
6.618881e+002,1.931091e+002
6.628524e+002,1.916325e+002
6.638166e+002,1.894493e+002
6.647808e+002,1.869348e+002
6.657451e+002,1.838822e+002
6.667093e+002,1.805341e+002
6.676735e+002,1.776277e+002
6.686378e+002,1.759517e+002
6.696020e+002,1.754857e+002
6.705662e+002,1.748578e+002
6.715305e+002,1.744487e+002
6.724947e+002,1.729951e+002
6.734589e+002,1.694595e+002
6.744232e+002,1.641948e+002
6.753874e+002,1.601511e+002
6.763516e+002,1.584031e+002
6.773159e+002,1.570939e+002
6.782801e+002,1.560040e+002
6.792443e+002,1.547733e+002
6.802086e+002,1.530309e+002
6.811728e+002,1.505401e+002
6.821370e+002,1.476128e+002
6.831013e+002,1.446904e+002
6.840655e+002,1.421184e+002
6.850297e+002,1.404161e+002
6.859940e+002,1.398152e+002
6.869582e+002,1.399089e+002
6.879224e+002,1.386216e+002
6.888867e+002,1.350863e+002
6.898509e+002,1.318148e+002
6.908151e+002,1.296786e+002
6.917794e+002,1.283050e+002
6.927436e+002,1.266071e+002
6.937078e+002,1.240608e+002
6.946721e+002,1.215146e+002
6.956363e+002,1.190423e+002
6.966005e+002,1.169778e+002
6.975648e+002,1.157919e+002
6.985290e+002,1.154706e+002
6.994932e+002,1.148292e+002
7.004575e+002,1.111632e+002
7.014217e+002,1.062701e+002
7.023859e+002,1.030065e+002
7.033502e+002,1.022920e+002
7.043144e+002,1.031860e+002
7.052786e+002,1.033995e+002
7.062429e+002,1.021589e+002
7.072071e+002,1.009515e+002
7.081713e+002,1.002474e+002
7.091356e+002,9.960905e+001
7.100998e+002,9.849042e+001
7.110640e+002,9.662941e+001
7.120283e+002,9.467833e+001
7.129925e+002,9.284647e+001
7.139567e+002,9.122702e+001
7.149210e+002,9.003952e+001
7.158852e+002,8.919312e+001
7.168494e+002,8.836916e+001
7.178137e+002,8.721771e+001
7.187779e+002,8.587495e+001
7.197421e+002,8.455298e+001
7.207064e+002,8.310971e+001
7.216706e+002,8.180328e+001
7.226348e+002,8.096524e+001
7.235991e+002,8.075079e+001
7.245633e+002,8.097868e+001
7.255275e+002,8.203453e+001
7.264918e+002,8.240398e+001
7.274560e+002,8.137589e+001
7.284202e+002,7.954228e+001
7.293845e+002,7.834584e+001
7.303487e+002,7.889560e+001
7.313129e+002,7.942274e+001
7.322772e+002,7.813370e+001
7.332414e+002,7.597348e+001
7.342056e+002,7.455351e+001
7.351699e+002,7.493338e+001
7.361341e+002,7.663763e+001
7.370983e+002,7.695105e+001
7.380626e+002,7.524049e+001
7.390268e+002,7.430525e+001
7.399910e+002,7.585674e+001
7.409553e+002,7.891978e+001
7.419195e+002,8.059390e+001
7.428837e+002,7.983243e+001
7.438480e+002,7.857751e+001
7.448122e+002,7.674788e+001
7.457764e+002,7.558894e+001
7.467407e+002,7.648468e+001
7.477049e+002,7.968083e+001
7.486691e+002,8.327274e+001
7.496334e+002,8.431873e+001
7.505976e+002,8.405273e+001
7.515618e+002,8.429762e+001
7.525261e+002,8.539224e+001
7.534903e+002,8.697162e+001
7.544545e+002,8.855804e+001
7.554188e+002,9.057683e+001
7.563830e+002,9.192644e+001
7.573472e+002,9.146315e+001
7.583115e+002,9.074454e+001
7.592757e+002,9.078572e+001
7.602399e+002,9.182356e+001
7.612042e+002,9.352748e+001
7.621684e+002,9.623672e+001
7.631326e+002,9.825746e+001
7.640969e+002,9.821208e+001
7.650611e+002,9.725491e+001
7.660253e+002,9.753813e+001
7.669896e+002,1.007371e+002
7.679538e+002,1.057276e+002
7.689180e+002,1.082650e+002
7.698823e+002,1.083960e+002
7.708465e+002,1.080795e+002
7.718107e+002,1.084867e+002
7.727750e+002,1.095672e+002
7.737392e+002,1.101454e+002
7.747034e+002,1.096311e+002
7.756677e+002,1.094897e+002
7.766319e+002,1.098825e+002
7.775961e+002,1.102902e+002
7.785604e+002,1.100075e+002
7.795246e+002,1.088630e+002
7.804888e+002,1.082279e+002
7.814531e+002,1.109010e+002
7.824173e+002,1.136349e+002
7.833815e+002,1.138825e+002
7.843458e+002,1.117041e+002
7.853100e+002,1.087088e+002
7.862742e+002,1.066784e+002
7.872385e+002,1.054388e+002
7.882027e+002,1.047496e+002
7.891669e+002,1.048926e+002
7.901312e+002,1.047518e+002
7.910954e+002,1.035997e+002
7.920596e+002,1.018902e+002
7.930239e+002,1.015659e+002
7.939881e+002,1.042803e+002
7.949523e+002,1.063846e+002
7.959166e+002,1.065203e+002
7.968808e+002,1.054951e+002
7.978450e+002,1.044472e+002
7.988093e+002,1.039755e+002
7.997735e+002,1.036129e+002
8.007377e+002,1.022018e+002
8.017020e+002,1.003010e+002
8.026662e+002,9.889568e+001
8.036304e+002,9.826270e+001
8.045947e+002,9.802621e+001
8.055589e+002,9.747412e+001
8.065231e+002,9.646733e+001
8.074874e+002,9.529749e+001
8.084516e+002,9.395992e+001
8.094158e+002,9.252042e+001
8.103801e+002,9.136794e+001
8.113443e+002,9.063110e+001
8.123085e+002,8.967151e+001
8.132728e+002,8.702730e+001
8.142370e+002,8.442416e+001
8.152012e+002,8.316666e+001
8.161655e+002,8.259995e+001
8.171297e+002,8.189067e+001
8.180939e+002,8.063516e+001
8.190582e+002,7.914282e+001
8.200224e+002,7.684227e+001
8.209866e+002,7.339558e+001
8.219509e+002,7.031331e+001
8.229151e+002,6.772069e+001
8.238793e+002,6.567105e+001
8.248436e+002,6.461470e+001
8.258078e+002,6.547023e+001
8.267720e+002,6.537704e+001
8.277363e+002,6.332414e+001
8.287005e+002,6.059256e+001
8.296647e+002,5.814841e+001
8.306290e+002,5.623012e+001
8.315932e+002,5.427835e+001
8.325574e+002,5.125031e+001
8.335217e+002,4.827878e+001
8.344859e+002,4.770918e+001
8.354501e+002,4.906400e+001
8.364144e+002,4.995609e+001
8.373786e+002,4.837886e+001
8.383428e+002,4.456534e+001
8.393071e+002,4.214365e+001
8.402713e+002,4.192410e+001
8.412355e+002,4.209868e+001
8.421998e+002,4.289600e+001
8.431640e+002,4.368631e+001
8.441282e+002,4.353883e+001
8.450925e+002,4.207626e+001
8.460567e+002,4.025310e+001
8.470209e+002,3.851971e+001
8.479852e+002,3.681998e+001
8.489494e+002,3.489832e+001
8.499136e+002,3.295747e+001
8.508779e+002,3.172934e+001
8.518421e+002,3.217406e+001
8.528063e+002,3.426260e+001
8.537706e+002,3.592654e+001
8.547348e+002,3.731828e+001
8.556990e+002,3.817215e+001
8.566633e+002,3.809445e+001
8.576275e+002,3.711514e+001
8.585917e+002,3.606282e+001
8.595560e+002,3.533363e+001
8.605202e+002,3.439375e+001
8.614844e+002,3.270595e+001
8.624487e+002,3.106818e+001
8.634129e+002,3.003046e+001
8.643771e+002,2.971640e+001
8.653414e+002,3.017567e+001
8.663056e+002,3.302399e+001
8.672698e+002,3.689001e+001
8.682341e+002,3.759587e+001
8.691983e+002,3.436563e+001
8.701625e+002,3.038802e+001
8.711268e+002,2.970511e+001
8.720910e+002,3.296942e+001
8.730552e+002,3.432394e+001
8.740195e+002,3.318947e+001
8.749837e+002,3.251102e+001
8.759479e+002,3.325862e+001
8.769122e+002,3.454749e+001
8.778764e+002,3.447964e+001
8.788406e+002,3.169087e+001
8.798049e+002,2.923492e+001
8.807691e+002,3.110464e+001
8.817333e+002,3.453271e+001
8.826976e+002,3.650905e+001
8.836618e+002,3.616585e+001
8.846260e+002,3.446321e+001
8.855903e+002,3.287816e+001
8.865545e+002,3.126984e+001
8.875187e+002,3.063968e+001
8.884830e+002,3.139963e+001
8.894472e+002,3.256480e+001
8.904114e+002,3.380429e+001
8.913757e+002,3.512123e+001
8.923399e+002,3.627138e+001
8.933041e+002,3.710422e+001
8.942684e+002,3.726401e+001
8.952326e+002,3.633496e+001
8.961968e+002,3.512511e+001
8.971611e+002,3.459595e+001
8.981253e+002,3.512407e+001
8.990895e+002,3.617331e+001
9.000538e+002,3.666957e+001
9.010180e+002,3.672368e+001
9.019822e+002,3.764545e+001
9.029465e+002,3.971645e+001
9.039107e+002,4.208017e+001
9.048749e+002,4.390555e+001
9.058392e+002,4.508839e+001
9.068034e+002,4.613368e+001
9.077676e+002,4.737402e+001
9.087319e+002,4.825523e+001
9.096961e+002,4.813466e+001
9.106603e+002,4.800429e+001
9.116246e+002,4.916589e+001
9.125888e+002,5.203253e+001
9.135530e+002,5.519719e+001
9.145173e+002,5.693024e+001
9.154815e+002,5.774954e+001
9.164457e+002,5.845238e+001
9.174100e+002,5.938272e+001
9.183742e+002,6.057651e+001
9.193384e+002,6.191537e+001
9.203027e+002,6.333875e+001
9.212669e+002,6.522025e+001
9.222311e+002,6.725856e+001
9.231954e+002,6.902551e+001
9.241596e+002,7.076149e+001
9.251238e+002,7.263260e+001
9.260881e+002,7.459470e+001
9.270523e+002,7.651762e+001
9.280165e+002,7.853683e+001
9.289808e+002,8.070490e+001
9.299450e+002,8.314365e+001
9.309092e+002,8.596895e+001
9.318735e+002,8.907895e+001
9.328377e+002,9.227676e+001
9.338019e+002,9.542241e+001
9.347662e+002,9.848514e+001
9.357304e+002,1.010772e+002
9.366946e+002,1.040607e+002
9.376589e+002,1.058856e+002
9.386231e+002,1.045290e+002
9.395873e+002,1.015494e+002
9.405516e+002,1.010011e+002
9.415158e+002,1.045330e+002
9.424800e+002,1.079668e+002
9.434443e+002,1.096624e+002
9.444085e+002,1.107505e+002
9.453727e+002,1.117950e+002
9.463370e+002,1.129362e+002
9.473012e+002,1.140538e+002
9.482654e+002,1.149643e+002
9.492297e+002,1.154861e+002
9.501939e+002,1.155621e+002
9.511581e+002,1.155171e+002
9.521224e+002,1.164786e+002
9.530866e+002,1.193041e+002
9.540508e+002,1.230866e+002
9.550151e+002,1.258918e+002
9.559793e+002,1.278374e+002
9.569435e+002,1.275585e+002
9.579078e+002,1.236158e+002
9.588720e+002,1.201716e+002
9.598362e+002,1.196642e+002
9.608005e+002,1.215756e+002
9.617647e+002,1.238722e+002
9.627289e+002,1.252761e+002
9.636932e+002,1.258267e+002
9.646574e+002,1.251671e+002
9.656216e+002,1.236318e+002
9.665859e+002,1.227900e+002
9.675501e+002,1.234984e+002
9.685143e+002,1.253090e+002
9.694786e+002,1.270458e+002
9.704428e+002,1.286145e+002
9.714070e+002,1.306345e+002
9.723713e+002,1.322650e+002
9.733355e+002,1.340897e+002
9.742997e+002,1.367007e+002
9.752640e+002,1.402682e+002
9.762282e+002,1.448644e+002
9.771924e+002,1.505504e+002
9.781567e+002,1.557212e+002
9.791209e+002,1.580902e+002
9.800851e+002,1.591303e+002
9.810494e+002,1.608556e+002
9.820136e+002,1.639013e+002
9.829778e+002,1.675847e+002
9.839421e+002,1.707838e+002
9.849063e+002,1.732075e+002
9.858705e+002,1.743047e+002
9.868348e+002,1.735246e+002
9.877990e+002,1.736376e+002
9.887632e+002,1.757499e+002
9.897275e+002,1.789115e+002
9.906917e+002,1.817476e+002
9.916559e+002,1.837534e+002
9.926202e+002,1.838777e+002
9.935844e+002,1.803682e+002
9.945486e+002,1.762279e+002
9.955129e+002,1.736372e+002
9.964771e+002,1.729167e+002
9.974413e+002,1.735549e+002
9.984056e+002,1.749870e+002
9.993698e+002,1.768203e+002
1.000334e+003,1.768490e+002
1.001298e+003,1.736608e+002
1.002263e+003,1.718450e+002
1.003227e+003,1.726525e+002
1.004191e+003,1.746185e+002
1.005155e+003,1.760577e+002
1.006119e+003,1.767090e+002
1.007084e+003,1.775449e+002
1.008048e+003,1.798027e+002
1.009012e+003,1.822393e+002
1.009976e+003,1.835509e+002
1.010941e+003,1.840848e+002
1.011905e+003,1.848903e+002
1.012869e+003,1.866006e+002
1.013833e+003,1.887726e+002
1.014798e+003,1.903691e+002
1.015762e+003,1.915948e+002
1.016726e+003,1.938245e+002
1.017690e+003,1.972462e+002
1.018654e+003,2.013351e+002
1.019619e+003,2.060693e+002
1.020583e+003,2.111258e+002
1.021547e+003,2.148431e+002
1.022511e+003,2.155480e+002
1.023476e+003,2.165014e+002
1.024440e+003,2.201282e+002
1.025404e+003,2.246365e+002
1.026368e+003,2.279442e+002
1.027333e+003,2.296579e+002
1.028297e+003,2.312439e+002
1.029261e+003,2.344289e+002
1.030225e+003,2.387797e+002
1.031190e+003,2.418155e+002
1.032154e+003,2.437142e+002
1.033118e+003,2.465464e+002
1.034082e+003,2.512829e+002
1.035047e+003,2.571227e+002
1.036011e+003,2.626340e+002
1.036975e+003,2.677169e+002
1.037939e+003,2.719453e+002
1.038903e+003,2.749611e+002
1.039868e+003,2.783350e+002
1.040832e+003,2.829456e+002
1.041796e+003,2.882318e+002
1.042760e+003,2.929843e+002
1.043725e+003,2.964800e+002
1.044689e+003,2.990262e+002
1.045653e+003,3.013119e+002
1.046617e+003,3.033654e+002
1.047582e+003,3.061192e+002
1.048546e+003,3.103439e+002
1.049510e+003,3.155083e+002
1.050474e+003,3.208726e+002
1.051438e+003,3.261757e+002
1.052403e+003,3.313166e+002
1.053367e+003,3.363116e+002
1.054331e+003,3.407453e+002
1.055295e+003,3.443436e+002
1.056260e+003,3.478185e+002
1.057224e+003,3.519503e+002
1.058188e+003,3.569186e+002
1.059152e+003,3.621484e+002
1.060117e+003,3.668529e+002
1.061081e+003,3.713323e+002
1.062045e+003,3.774366e+002
1.063009e+003,3.848938e+002
1.063974e+003,3.912199e+002
1.064938e+003,3.953688e+002
1.065902e+003,3.985229e+002
1.066866e+003,4.025688e+002
1.067830e+003,4.073096e+002
1.068795e+003,4.119265e+002
1.069759e+003,4.168287e+002
1.070723e+003,4.215125e+002
1.071687e+003,4.253000e+002
1.072652e+003,4.292360e+002
1.073616e+003,4.350897e+002
1.074580e+003,4.433563e+002
1.075544e+003,4.517201e+002
1.076509e+003,4.565545e+002
1.077473e+003,4.586040e+002
1.078437e+003,4.623105e+002
1.079401e+003,4.684951e+002
1.080365e+003,4.748662e+002
1.081330e+003,4.794862e+002
1.082294e+003,4.824595e+002
1.083258e+003,4.850012e+002
1.084222e+003,4.865749e+002
1.085187e+003,4.891766e+002
1.086151e+003,4.946940e+002
1.087115e+003,5.001785e+002
1.088079e+003,5.029498e+002
1.089043e+003,5.034025e+002
1.090008e+003,5.040721e+002
1.090972e+003,5.069159e+002
1.091936e+003,5.107909e+002
1.092900e+003,5.123721e+002
1.093865e+003,5.119911e+002
1.094829e+003,5.121897e+002
1.095793e+003,5.145637e+002
1.096757e+003,5.166171e+002
1.097722e+003,5.144725e+002
1.098686e+003,5.077155e+002
1.099650e+003,5.024283e+002
1.100614e+003,5.016653e+002
1.101578e+003,5.009213e+002
1.102543e+003,4.986136e+002
1.103507e+003,4.955016e+002
1.104471e+003,4.922719e+002
1.105435e+003,4.887218e+002
1.106400e+003,4.839893e+002
1.107364e+003,4.775585e+002
1.108328e+003,4.704521e+002
1.109292e+003,4.654080e+002
1.110257e+003,4.625494e+002
1.111221e+003,4.595162e+002
1.112185e+003,4.551665e+002
1.113149e+003,4.493829e+002
1.114114e+003,4.418530e+002
1.115078e+003,4.325145e+002
1.116042e+003,4.250215e+002
1.117006e+003,4.225162e+002
1.117970e+003,4.196797e+002
1.118935e+003,4.143318e+002
1.119899e+003,4.071895e+002
1.120863e+003,3.989170e+002
1.121827e+003,3.903439e+002
1.122792e+003,3.831422e+002
1.123756e+003,3.793496e+002
1.124720e+003,3.778158e+002
1.125684e+003,3.724886e+002
1.126649e+003,3.635816e+002
1.127613e+003,3.546257e+002
1.128577e+003,3.461473e+002
1.129541e+003,3.385072e+002
1.130505e+003,3.326469e+002
1.131470e+003,3.287509e+002
1.132434e+003,3.243875e+002
1.133398e+003,3.193119e+002
1.134362e+003,3.136203e+002
1.135327e+003,3.062041e+002
1.136291e+003,2.983083e+002
1.137255e+003,2.918097e+002
1.138219e+003,2.874254e+002
1.139184e+003,2.844409e+002
1.140148e+003,2.819000e+002
1.141112e+003,2.794304e+002
1.142076e+003,2.749709e+002
1.143041e+003,2.683941e+002
1.144005e+003,2.621445e+002
1.144969e+003,2.572694e+002
1.145933e+003,2.530117e+002
1.146897e+003,2.479208e+002
1.147862e+003,2.415639e+002
1.148826e+003,2.360782e+002
1.149790e+003,2.337223e+002
1.150754e+003,2.314679e+002
1.151719e+003,2.273459e+002
1.152683e+003,2.221909e+002
1.153647e+003,2.173087e+002
1.154611e+003,2.132504e+002
1.155576e+003,2.095585e+002
1.156540e+003,2.054087e+002
1.157504e+003,2.003727e+002
1.158468e+003,1.958732e+002
1.159432e+003,1.925159e+002
1.160397e+003,1.894164e+002
1.161361e+003,1.874560e+002
1.162325e+003,1.853865e+002
1.163289e+003,1.808540e+002
1.164254e+003,1.735909e+002
1.165218e+003,1.670993e+002
1.166182e+003,1.633912e+002
1.167146e+003,1.612376e+002
1.168111e+003,1.601519e+002
1.169075e+003,1.591865e+002
1.170039e+003,1.567821e+002
1.171003e+003,1.525092e+002
1.171968e+003,1.472157e+002
1.172932e+003,1.419542e+002
1.173896e+003,1.367560e+002
1.174860e+003,1.333050e+002
1.175824e+003,1.332568e+002
1.176789e+003,1.322144e+002
1.177753e+003,1.292324e+002
1.178717e+003,1.256612e+002
1.179681e+003,1.227955e+002
1.180646e+003,1.205473e+002
1.181610e+003,1.176479e+002
1.182574e+003,1.132407e+002
1.183538e+003,1.084228e+002
1.184503e+003,1.043684e+002
1.185467e+003,1.010704e+002
1.186431e+003,9.880223e+001
1.187395e+003,9.750084e+001
1.188359e+003,9.633128e+001
1.189324e+003,9.475482e+001
1.190288e+003,9.292514e+001
1.191252e+003,9.030623e+001
1.192216e+003,8.580640e+001
1.193181e+003,8.206795e+001
1.194145e+003,7.971950e+001
1.195109e+003,7.740239e+001
1.196073e+003,7.413782e+001
1.197038e+003,7.051234e+001
1.198002e+003,6.785036e+001
1.198966e+003,6.674701e+001
1.199930e+003,6.647392e+001
1.200895e+003,6.635655e+001
1.201859e+003,6.620384e+001
1.202823e+003,6.538177e+001
1.203787e+003,6.381511e+001
1.204751e+003,6.143855e+001
1.205716e+003,5.733748e+001
1.206680e+003,5.257358e+001
1.207644e+003,5.058890e+001
1.208608e+003,5.238873e+001
1.209573e+003,5.297752e+001
1.210537e+003,5.088693e+001
1.211501e+003,4.801134e+001
1.212465e+003,4.398120e+001
1.213430e+003,4.011720e+001
1.214394e+003,3.837494e+001
1.215358e+003,3.894778e+001
1.216322e+003,3.964073e+001
1.217286e+003,3.803317e+001
1.218251e+003,3.452882e+001
1.219215e+003,3.156642e+001
1.220179e+003,2.920473e+001
1.221143e+003,2.756241e+001
1.222108e+003,2.651025e+001
1.223072e+003,2.628223e+001
1.224036e+003,2.757115e+001
1.225000e+003,2.996541e+001
1.225965e+003,3.091734e+001
1.226929e+003,2.903006e+001
1.227893e+003,2.642772e+001
1.228857e+003,2.535909e+001
1.229822e+003,2.497916e+001
1.230786e+003,2.367816e+001
1.231750e+003,2.131372e+001
1.232714e+003,1.915472e+001
1.233678e+003,1.832329e+001
1.234643e+003,1.847318e+001
1.235607e+003,1.845477e+001
1.236571e+003,1.860498e+001
1.237535e+003,1.866628e+001
1.238500e+003,1.818597e+001
1.239464e+003,1.778575e+001
1.240428e+003,1.768755e+001
1.241392e+003,1.767719e+001
1.242357e+003,1.778098e+001
1.243321e+003,1.814984e+001
1.244285e+003,1.810298e+001
1.245249e+003,1.658340e+001
1.246214e+003,1.461810e+001
1.247178e+003,1.380995e+001
1.248142e+003,1.378018e+001
1.249106e+003,1.380505e+001
1.250070e+003,1.377927e+001
1.251035e+003,1.369846e+001
1.251999e+003,1.337576e+001
1.252963e+003,1.276375e+001
1.253927e+003,1.228320e+001
1.254892e+003,1.190739e+001
1.255856e+003,1.199551e+001
1.256820e+003,1.310722e+001
1.257784e+003,1.410249e+001
1.258749e+003,1.375308e+001
1.259713e+003,1.248376e+001
1.260677e+003,1.183163e+001
1.261641e+003,1.267557e+001
1.262605e+003,1.409352e+001
1.263570e+003,1.450716e+001
1.264534e+003,1.391937e+001
1.265498e+003,1.361560e+001
1.266462e+003,1.390491e+001
1.267427e+003,1.392706e+001
1.268391e+003,1.287776e+001
1.269355e+003,1.121581e+001
1.270319e+003,9.896088e+000
1.271284e+003,9.142502e+000
1.272248e+003,8.646637e+000
1.273212e+003,8.642273e+000
1.274176e+003,8.882568e+000
1.275141e+003,8.477524e+000
1.276105e+003,7.571198e+000
1.277069e+003,6.688202e+000
1.278033e+003,6.178162e+000
1.278997e+003,6.319199e+000
1.279962e+003,7.452652e+000
1.280926e+003,9.516541e+000
1.281890e+003,1.112314e+001
1.282854e+003,1.128201e+001
1.283819e+003,1.103786e+001
1.284783e+003,1.071281e+001
1.285747e+003,1.019713e+001
1.286711e+003,9.289505e+000
1.287676e+003,8.534348e+000
1.288640e+003,8.865814e+000
1.289604e+003,1.027003e+001
1.290568e+003,1.104950e+001
1.291532e+003,9.530655e+000
1.292497e+003,6.895950e+000
1.293461e+003,5.756119e+000
1.294425e+003,6.017227e+000
1.295389e+003,6.891830e+000
1.296354e+003,8.308655e+000
1.297318e+003,9.562897e+000
1.298282e+003,9.944580e+000
1.299246e+003,9.483322e+000
1.300211e+003,8.510010e+000
1.301175e+003,6.805573e+000
1.302139e+003,5.900085e+000
1.303103e+003,6.863327e+000
1.304068e+003,7.586838e+000
1.305032e+003,6.170609e+000
1.305996e+003,3.883514e+000
1.306960e+003,3.524460e+000
1.307924e+003,6.089844e+000
1.308889e+003,9.470444e+000
1.309853e+003,1.059665e+001
1.310817e+003,9.216751e+000
1.311781e+003,8.172531e+000
1.312746e+003,8.633163e+000
1.313710e+003,9.065598e+000
1.314674e+003,8.939453e+000
1.315638e+003,8.780823e+000
1.316603e+003,8.749481e+000
1.317567e+003,8.678940e+000
1.318531e+003,8.612930e+000
1.319495e+003,8.921310e+000
1.320459e+003,9.860596e+000
1.321424e+003,1.157013e+001
1.322388e+003,1.313309e+001
1.323352e+003,1.351024e+001
1.324316e+003,1.283878e+001
1.325281e+003,1.164005e+001
1.326245e+003,9.914063e+000
1.327209e+003,8.401260e+000
1.328173e+003,8.442245e+000
1.329138e+003,1.001530e+001
1.330102e+003,1.067259e+001
1.331066e+003,1.017400e+001
1.332030e+003,9.396454e+000
1.332995e+003,7.740463e+000
1.333959e+003,6.267120e+000
1.334923e+003,5.726639e+000
1.335887e+003,5.954514e+000
1.336851e+003,6.748779e+000
1.337816e+003,8.016052e+000
1.338780e+003,9.333908e+000
1.339744e+003,9.895523e+000
1.340708e+003,9.534393e+000
1.341673e+003,9.041275e+000
1.342637e+003,8.120636e+000
1.343601e+003,7.883743e+000
1.344565e+003,9.759460e+000
1.345530e+003,1.148767e+001
1.346494e+003,1.089532e+001
1.347458e+003,8.726013e+000
1.348422e+003,7.046967e+000
1.349386e+003,6.287720e+000
1.350351e+003,6.195908e+000
1.351315e+003,7.185104e+000
1.352279e+003,8.655121e+000
1.353243e+003,9.825668e+000
1.354208e+003,1.060326e+001
1.355172e+003,1.016681e+001
1.356136e+003,7.782623e+000
1.357100e+003,5.252136e+000
1.358065e+003,5.174805e+000
1.359029e+003,7.303848e+000
1.359993e+003,8.303207e+000
1.360957e+003,7.516815e+000
1.361922e+003,7.367676e+000
1.362886e+003,9.150833e+000
1.363850e+003,1.094334e+001
1.364814e+003,1.191621e+001
1.365778e+003,1.191414e+001
1.366743e+003,1.057379e+001
1.367707e+003,8.183182e+000
1.368671e+003,6.207703e+000
1.369635e+003,6.206161e+000
1.370600e+003,7.850647e+000
1.371564e+003,8.964447e+000
1.372528e+003,8.992493e+000
1.373492e+003,9.147614e+000
1.374457e+003,9.408295e+000
1.375421e+003,9.555649e+000
1.376385e+003,9.665039e+000
1.377349e+003,9.761078e+000
1.378313e+003,9.785599e+000
1.379278e+003,9.653473e+000
1.380242e+003,9.282013e+000
1.381206e+003,8.698303e+000
1.382170e+003,8.107590e+000
1.383135e+003,7.440323e+000
1.384099e+003,6.877029e+000
1.385063e+003,7.063904e+000
1.386027e+003,7.894562e+000
1.386992e+003,8.479614e+000
1.387956e+003,8.534943e+000
1.388920e+003,8.426498e+000
1.389884e+003,8.594711e+000
1.390849e+003,9.089050e+000
1.391813e+003,9.292313e+000
1.392777e+003,8.259674e+000
1.393741e+003,7.292587e+000
1.394705e+003,8.138596e+000
1.395670e+003,9.450897e+000
1.396634e+003,9.424820e+000
1.397598e+003,8.097595e+000
1.398562e+003,6.766418e+000
1.399527e+003,6.312775e+000
1.400491e+003,6.572540e+000
1.401455e+003,7.149780e+000
1.402419e+003,8.048721e+000
1.403384e+003,8.180389e+000
1.404348e+003,5.992645e+000
1.405312e+003,4.619476e+000
1.406276e+003,5.649521e+000
1.407240e+003,7.427628e+000
1.408205e+003,8.573608e+000
1.409169e+003,8.972275e+000
1.410133e+003,9.181000e+000
1.411097e+003,9.318481e+000
1.412062e+003,8.660156e+000
1.413026e+003,6.593948e+000
1.413990e+003,4.262848e+000
1.414954e+003,4.256073e+000
1.415919e+003,6.574158e+000
1.416883e+003,8.704514e+000
1.417847e+003,1.088274e+001
1.418811e+003,1.196919e+001
1.419776e+003,1.097760e+001
1.420740e+003,8.956406e+000
1.421704e+003,7.205826e+000
1.422668e+003,5.968979e+000
1.423632e+003,5.567352e+000
1.424597e+003,6.299500e+000
1.425561e+003,7.288330e+000
1.426525e+003,7.814301e+000
1.427489e+003,8.024109e+000
1.428454e+003,7.750931e+000
1.429418e+003,7.088531e+000
1.430382e+003,7.120346e+000
1.431346e+003,8.540344e+000
1.432311e+003,1.005630e+001
1.433275e+003,9.745697e+000
1.434239e+003,8.118958e+000
1.435203e+003,8.595505e+000
1.436167e+003,1.250429e+001
1.437132e+003,1.479993e+001
1.438096e+003,1.163934e+001
1.439060e+003,8.226852e+000
1.440024e+003,8.213104e+000
1.440989e+003,1.040770e+001
1.441953e+003,1.243071e+001
1.442917e+003,1.326534e+001
1.443881e+003,1.298354e+001
1.444846e+003,1.178581e+001
1.445810e+003,1.018271e+001
1.446774e+003,9.391434e+000
1.447738e+003,9.325714e+000
1.448703e+003,9.429581e+000
1.449667e+003,9.976486e+000
1.450631e+003,1.048660e+001
1.451595e+003,1.109401e+001
1.452559e+003,1.169316e+001
1.453524e+003,1.197456e+001
1.454488e+003,1.200491e+001
1.455452e+003,1.217525e+001
1.456416e+003,1.261632e+001
1.457381e+003,1.288907e+001
1.458345e+003,1.243834e+001
1.459309e+003,1.134669e+001
1.460273e+003,1.065471e+001
1.461238e+003,1.078438e+001
1.462202e+003,1.123161e+001
1.463166e+003,1.208241e+001
1.464130e+003,1.294983e+001
1.465094e+003,1.332111e+001
1.466059e+003,1.315384e+001
1.467023e+003,1.273572e+001
1.467987e+003,1.232384e+001
1.468951e+003,1.209695e+001
1.469916e+003,1.222165e+001
1.470880e+003,1.289749e+001
1.471844e+003,1.412364e+001
1.472808e+003,1.517947e+001
1.473773e+003,1.533379e+001
1.474737e+003,1.474873e+001
1.475701e+003,1.436115e+001
1.476665e+003,1.466876e+001
1.477630e+003,1.551642e+001
1.478594e+003,1.681175e+001
1.479558e+003,1.814641e+001
1.480522e+003,1.825574e+001
1.481486e+003,1.684200e+001
1.482451e+003,1.573102e+001
1.483415e+003,1.593112e+001
1.484379e+003,1.653134e+001
1.485343e+003,1.673775e+001
1.486308e+003,1.689461e+001
1.487272e+003,1.768210e+001
1.488236e+003,1.911505e+001
1.489200e+003,2.028952e+001
1.490165e+003,2.038020e+001
1.491129e+003,1.980450e+001
1.492093e+003,1.977490e+001
1.493057e+003,2.048845e+001
1.494021e+003,2.086308e+001
1.494986e+003,2.028535e+001
1.495950e+003,2.057825e+001
1.496914e+003,2.300854e+001
1.497878e+003,2.528613e+001
1.498843e+003,2.533952e+001
1.499807e+003,2.445471e+001
1.500771e+003,2.522386e+001
1.501735e+003,2.815948e+001
1.502700e+003,3.125427e+001
1.503664e+003,3.262659e+001
1.504628e+003,3.266284e+001
1.505592e+003,3.288730e+001
1.506557e+003,3.371179e+001
1.507521e+003,3.423235e+001
1.508485e+003,3.382883e+001
1.509449e+003,3.353845e+001
1.510413e+003,3.369478e+001
1.511378e+003,3.370401e+001
1.512342e+003,3.327069e+001
1.513306e+003,3.249239e+001
1.514270e+003,3.131100e+001
1.515235e+003,2.980069e+001
1.516199e+003,2.866884e+001
1.517163e+003,2.871280e+001
1.518127e+003,2.954758e+001
1.519092e+003,2.961394e+001
1.520056e+003,2.838957e+001
1.521020e+003,2.795149e+001
1.521984e+003,2.946651e+001
1.522948e+003,3.001366e+001
1.523913e+003,2.826750e+001
1.524877e+003,2.613510e+001
1.525841e+003,2.511110e+001
1.526805e+003,2.499237e+001
1.527770e+003,2.502431e+001
1.528734e+003,2.477904e+001
1.529698e+003,2.401515e+001
1.530662e+003,2.267357e+001
1.531627e+003,2.113141e+001
1.532591e+003,1.999774e+001
1.533555e+003,1.933565e+001
1.534519e+003,1.877524e+001
1.535484e+003,1.858853e+001
1.536448e+003,1.819118e+001
1.537412e+003,1.691571e+001
1.538376e+003,1.546893e+001
1.539340e+003,1.497572e+001
1.540305e+003,1.515387e+001
1.541269e+003,1.427603e+001
1.542233e+003,1.171049e+001
1.543197e+003,9.930695e+000
1.544162e+003,1.125104e+001
1.545126e+003,1.396439e+001
1.546090e+003,1.498465e+001
1.547054e+003,1.503900e+001
1.548019e+003,1.547336e+001
1.548983e+003,1.588483e+001
1.549947e+003,1.599168e+001
1.550911e+003,1.544283e+001
1.551875e+003,1.499094e+001
1.552840e+003,1.628433e+001
1.553804e+003,1.880394e+001
1.554768e+003,1.957237e+001
1.555732e+003,1.758611e+001
1.556697e+003,1.506023e+001
1.557661e+003,1.315482e+001
1.558625e+003,1.195377e+001
1.559589e+003,1.162590e+001
1.560554e+003,1.205313e+001
1.561518e+003,1.333458e+001
1.562482e+003,1.556784e+001
1.563446e+003,1.686232e+001
1.564411e+003,1.590782e+001
1.565375e+003,1.409795e+001
1.566339e+003,1.263202e+001
1.567303e+003,1.155228e+001
1.568267e+003,1.150812e+001
1.569232e+003,1.271324e+001
1.570196e+003,1.301860e+001
1.571160e+003,1.079297e+001
1.572124e+003,8.358704e+000
1.573089e+003,8.684555e+000
1.574053e+003,1.044334e+001
1.575017e+003,1.103448e+001
1.575981e+003,1.025902e+001
1.576946e+003,1.012694e+001
1.577910e+003,1.167621e+001
1.578874e+003,1.345801e+001
1.579838e+003,1.410751e+001
1.580802e+003,1.430414e+001
1.581767e+003,1.553444e+001
1.582731e+003,1.772658e+001
1.583695e+003,1.823425e+001
1.584659e+003,1.538736e+001
1.585624e+003,1.231967e+001
1.586588e+003,1.196291e+001
1.587552e+003,1.293640e+001
1.588516e+003,1.372336e+001
1.589481e+003,1.408656e+001
1.590445e+003,1.397392e+001
1.591409e+003,1.322270e+001
1.592373e+003,1.226036e+001
1.593338e+003,1.146429e+001
1.594302e+003,1.103337e+001
1.595266e+003,1.134477e+001
1.596230e+003,1.241805e+001
1.597194e+003,1.366835e+001
1.598159e+003,1.508212e+001
1.599123e+003,1.590564e+001
1.600087e+003,1.568271e+001
1.601051e+003,1.489233e+001
1.602016e+003,1.342178e+001
1.602980e+003,1.163832e+001
1.603944e+003,1.055748e+001
1.604908e+003,1.058571e+001
1.605873e+003,1.136371e+001
1.606837e+003,1.302370e+001
1.607801e+003,1.461522e+001
1.608765e+003,1.384160e+001
1.609729e+003,1.088426e+001
1.610694e+003,9.452026e+000
1.611658e+003,1.035007e+001
1.612622e+003,1.146523e+001
1.613586e+003,1.232373e+001
1.614551e+003,1.325674e+001
1.615515e+003,1.447247e+001
1.616479e+003,1.530739e+001
1.617443e+003,1.470662e+001
1.618408e+003,1.301016e+001
1.619372e+003,1.225032e+001
1.620336e+003,1.357098e+001
1.621300e+003,1.535648e+001
1.622265e+003,1.577344e+001
1.623229e+003,1.512959e+001
1.624193e+003,1.436038e+001
1.625157e+003,1.340390e+001
1.626121e+003,1.307582e+001
1.627086e+003,1.396521e+001
1.628050e+003,1.470470e+001
1.629014e+003,1.412154e+001
1.629978e+003,1.305263e+001
1.630943e+003,1.230441e+001
1.631907e+003,1.185593e+001
1.632871e+003,1.161215e+001
1.633835e+003,1.167439e+001
1.634800e+003,1.189409e+001
1.635764e+003,1.223923e+001
1.636728e+003,1.262010e+001
1.637692e+003,1.255754e+001
1.638656e+003,1.198712e+001
1.639621e+003,1.171068e+001
1.640585e+003,1.185112e+001
1.641549e+003,1.192812e+001
1.642513e+003,1.193059e+001
1.643478e+003,1.251454e+001
1.644442e+003,1.469722e+001
1.645406e+003,1.701413e+001
1.646370e+003,1.722891e+001
1.647335e+003,1.553937e+001
1.648299e+003,1.430614e+001
1.649263e+003,1.446449e+001
1.650227e+003,1.499461e+001
1.651192e+003,1.532214e+001
1.652156e+003,1.535797e+001
1.653120e+003,1.446143e+001
1.654084e+003,1.293883e+001
1.655048e+003,1.324521e+001
1.656013e+003,1.624042e+001
1.656977e+003,1.852657e+001
1.657941e+003,1.764751e+001
1.658905e+003,1.555742e+001
1.659870e+003,1.476750e+001
1.660834e+003,1.515811e+001
1.661798e+003,1.642543e+001
1.662762e+003,1.844286e+001
1.663727e+003,1.921565e+001
1.664691e+003,1.710123e+001
1.665655e+003,1.465294e+001
1.666619e+003,1.399692e+001
1.667583e+003,1.468210e+001
1.668548e+003,1.615230e+001
1.669512e+003,1.795201e+001
1.670476e+003,1.816243e+001
1.671440e+003,1.617514e+001
1.672405e+003,1.473595e+001
1.673369e+003,1.597112e+001
1.674333e+003,1.842911e+001
1.675297e+003,1.978120e+001
1.676262e+003,2.006891e+001
1.677226e+003,1.917403e+001
1.678190e+003,1.628722e+001
1.679154e+003,1.483543e+001
1.680119e+003,1.724890e+001
1.681083e+003,2.023358e+001
1.682047e+003,2.122592e+001
1.683011e+003,2.105769e+001
1.683975e+003,2.122110e+001
1.684940e+003,2.198633e+001
1.685904e+003,2.306612e+001
1.686868e+003,2.428700e+001
1.687832e+003,2.523158e+001
1.688797e+003,2.530003e+001
1.689761e+003,2.462277e+001
1.690725e+003,2.417134e+001
1.691689e+003,2.414796e+001
1.692654e+003,2.454033e+001
1.693618e+003,2.646378e+001
1.694582e+003,2.774492e+001
1.695546e+003,2.693625e+001
1.696510e+003,2.547693e+001
1.697475e+003,2.436040e+001
1.698439e+003,2.381689e+001
1.699403e+003,2.397334e+001
1.700367e+003,2.476132e+001
1.701332e+003,2.587715e+001
1.702296e+003,2.713428e+001
1.703260e+003,2.860767e+001
1.704224e+003,3.042024e+001
1.705189e+003,3.216685e+001
1.706153e+003,3.276917e+001
1.707117e+003,3.189349e+001
1.708081e+003,3.050014e+001
1.709046e+003,2.832866e+001
1.710010e+003,2.777330e+001
1.710974e+003,2.972723e+001
1.711938e+003,3.174161e+001
1.712902e+003,3.191473e+001
1.713867e+003,3.131543e+001
1.714831e+003,3.225891e+001
1.715795e+003,3.471300e+001
1.716759e+003,3.640866e+001
1.717724e+003,3.613283e+001
1.718688e+003,3.507980e+001
1.719652e+003,3.460992e+001
1.720616e+003,3.455019e+001
1.721581e+003,3.466425e+001
1.722545e+003,3.504956e+001
1.723509e+003,3.565732e+001
1.724473e+003,3.674800e+001
1.725438e+003,3.780461e+001
1.726402e+003,3.883270e+001
1.727366e+003,3.924886e+001
1.728330e+003,3.858473e+001
1.729294e+003,3.745650e+001
1.730259e+003,3.634900e+001
1.731223e+003,3.552408e+001
1.732187e+003,3.567474e+001
1.733151e+003,3.701888e+001
1.734116e+003,3.766782e+001
1.735080e+003,3.530327e+001
1.736044e+003,3.173880e+001
1.737008e+003,3.096107e+001
1.737973e+003,3.259595e+001
1.738937e+003,3.416141e+001
1.739901e+003,3.561621e+001
1.740865e+003,3.555676e+001
1.741829e+003,3.257185e+001
1.742794e+003,2.950972e+001
1.743758e+003,2.895061e+001
1.744722e+003,2.994138e+001
1.745686e+003,3.135443e+001
1.746651e+003,3.299582e+001
1.747615e+003,3.407115e+001
1.748579e+003,3.407927e+001
1.749543e+003,3.412914e+001
1.750508e+003,3.562930e+001
1.751472e+003,3.707155e+001
1.752436e+003,3.610606e+001
1.753400e+003,3.366406e+001
1.754365e+003,3.208920e+001
1.755329e+003,3.182938e+001
1.756293e+003,3.295395e+001
1.757257e+003,3.563455e+001
1.758221e+003,3.756079e+001
1.759186e+003,3.617632e+001
1.760150e+003,3.325514e+001
1.761114e+003,3.322743e+001
1.762078e+003,3.615622e+001
1.763043e+003,3.731815e+001
1.764007e+003,3.564107e+001
1.764971e+003,3.372475e+001
1.765935e+003,3.195395e+001
1.766900e+003,3.102844e+001
1.767864e+003,3.160811e+001
1.768828e+003,3.268784e+001
1.769792e+003,3.308098e+001
1.770756e+003,3.294589e+001
1.771721e+003,3.310280e+001
1.772685e+003,3.361296e+001
1.773649e+003,3.370772e+001
1.774613e+003,3.299643e+001
1.775578e+003,3.222191e+001
1.776542e+003,3.259019e+001
1.777506e+003,3.398424e+001
1.778470e+003,3.368942e+001
1.779435e+003,3.036578e+001
1.780399e+003,2.890331e+001
1.781363e+003,3.202684e+001
1.782327e+003,3.478607e+001
1.783292e+003,3.474310e+001
1.784256e+003,3.348358e+001
1.785220e+003,3.251074e+001
1.786184e+003,3.175203e+001
1.787148e+003,3.000047e+001
1.788113e+003,2.726741e+001
1.789077e+003,2.603873e+001
1.790041e+003,2.800108e+001
1.791005e+003,3.032780e+001
1.791970e+003,2.981532e+001
1.792934e+003,2.802356e+001
1.793898e+003,2.835715e+001
1.794862e+003,3.035938e+001
1.795827e+003,3.069003e+001
1.796791e+003,2.857497e+001
1.797755e+003,2.654799e+001
1.798719e+003,2.577124e+001
1.799683e+003,2.623035e+001
1.800648e+003,2.857480e+001
1.801612e+003,3.151175e+001
1.802576e+003,3.082770e+001
1.803540e+003,2.633514e+001
1.804505e+003,2.380202e+001
1.805469e+003,2.565131e+001
1.806433e+003,2.743332e+001
1.807397e+003,2.748499e+001
1.808362e+003,2.685849e+001
1.809326e+003,2.602246e+001
1.810290e+003,2.522652e+001
1.811254e+003,2.453612e+001
1.812219e+003,2.420274e+001
1.813183e+003,2.498160e+001
1.814147e+003,2.672456e+001
1.815111e+003,2.762468e+001
1.816075e+003,2.644029e+001
1.817040e+003,2.464618e+001
1.818004e+003,2.472144e+001
1.818968e+003,2.653174e+001
1.819932e+003,2.689801e+001
1.820897e+003,2.445076e+001
1.821861e+003,2.304106e+001
1.822825e+003,2.405969e+001
1.823789e+003,2.502170e+001
1.824754e+003,2.543143e+001
1.825718e+003,2.597119e+001
1.826682e+003,2.696924e+001
1.827646e+003,2.772453e+001
1.828610e+003,2.713094e+001
1.829575e+003,2.544939e+001
1.830539e+003,2.439496e+001
1.831503e+003,2.460208e+001
1.832467e+003,2.559105e+001
1.833432e+003,2.761618e+001
1.834396e+003,2.958064e+001
1.835360e+003,3.021147e+001
1.836324e+003,2.995451e+001
1.837289e+003,2.877107e+001
1.838253e+003,2.658974e+001
1.839217e+003,2.559315e+001
1.840181e+003,2.683809e+001
1.841146e+003,2.799802e+001
1.842110e+003,2.714626e+001
1.843074e+003,2.562375e+001
1.844038e+003,2.578516e+001
1.845002e+003,2.749257e+001
1.845967e+003,2.833910e+001
1.846931e+003,2.786021e+001
1.847895e+003,2.758475e+001
1.848859e+003,2.650946e+001
1.849824e+003,2.593552e+001
1.850788e+003,2.778336e+001
1.851752e+003,2.948253e+001
1.852716e+003,2.866478e+001
1.853681e+003,2.698955e+001
1.854645e+003,2.680948e+001
1.855609e+003,2.806419e+001
1.856573e+003,2.921779e+001
1.857537e+003,2.945401e+001
1.858502e+003,2.919475e+001
1.859466e+003,2.928528e+001
1.860430e+003,2.972635e+001
1.861394e+003,2.956886e+001
1.862359e+003,2.872484e+001
1.863323e+003,2.816928e+001
1.864287e+003,2.790770e+001
1.865251e+003,2.805447e+001
1.866216e+003,2.912944e+001
1.867180e+003,3.009111e+001
1.868144e+003,2.973666e+001
1.869108e+003,2.874330e+001
1.870073e+003,2.835893e+001
1.871037e+003,2.861967e+001
1.872001e+003,2.925751e+001
1.872965e+003,3.068794e+001
1.873929e+003,3.060988e+001
1.874894e+003,2.614984e+001
1.875858e+003,2.311378e+001
1.876822e+003,2.465129e+001
1.877786e+003,2.728505e+001
1.878751e+003,2.884079e+001
1.879715e+003,2.971440e+001
1.880679e+003,3.064577e+001
1.881643e+003,3.149019e+001
1.882608e+003,3.164427e+001
1.883572e+003,3.097696e+001
1.884536e+003,2.986182e+001
1.885500e+003,2.847942e+001
1.886464e+003,2.711206e+001
1.887429e+003,2.653119e+001
1.888393e+003,2.689563e+001
1.889357e+003,2.782713e+001
1.890321e+003,2.924449e+001
1.891286e+003,3.009987e+001
1.892250e+003,3.004984e+001
1.893214e+003,2.956224e+001
1.894178e+003,2.891216e+001
1.895143e+003,2.862502e+001
1.896107e+003,2.878925e+001
1.897071e+003,2.932494e+001
1.898035e+003,3.052229e+001
1.899000e+003,3.184537e+001
1.899964e+003,3.171913e+001
1.900928e+003,3.048264e+001
1.901892e+003,2.967854e+001
1.902856e+003,2.892006e+001
1.903821e+003,2.854124e+001
1.904785e+003,2.898473e+001
1.905749e+003,2.925203e+001
1.906713e+003,2.863632e+001
1.907678e+003,2.782730e+001
1.908642e+003,2.761990e+001
1.909606e+003,2.797292e+001
1.910570e+003,2.860605e+001
1.911535e+003,2.939331e+001
1.912499e+003,2.985318e+001
1.913463e+003,2.922856e+001
1.914427e+003,2.770062e+001
1.915391e+003,2.628952e+001
1.916356e+003,2.535426e+001
1.917320e+003,2.480524e+001
1.918284e+003,2.467606e+001
1.919248e+003,2.624585e+001
1.920213e+003,3.002391e+001
1.921177e+003,3.189391e+001
1.922141e+003,2.913634e+001
1.923105e+003,2.564702e+001
1.924070e+003,2.540701e+001
1.925034e+003,2.746042e+001
1.925998e+003,2.974823e+001
1.926962e+003,3.231911e+001
1.927927e+003,3.311014e+001
1.928891e+003,3.121219e+001
1.929855e+003,2.925060e+001
1.930819e+003,2.652237e+001
1.931783e+003,2.496394e+001
1.932748e+003,2.671654e+001
1.933712e+003,2.928259e+001
1.934676e+003,3.050218e+001
1.935640e+003,3.051811e+001
1.936605e+003,2.982219e+001
1.937569e+003,2.854971e+001
1.938533e+003,2.703253e+001
1.939497e+003,2.575806e+001
1.940462e+003,2.475063e+001
1.941426e+003,2.324802e+001
1.942390e+003,2.201469e+001
1.943354e+003,2.351144e+001
1.944318e+003,2.626299e+001
1.945283e+003,2.544357e+001
1.946247e+003,2.173633e+001
1.947211e+003,2.001112e+001
1.948175e+003,2.136441e+001
1.949140e+003,2.429710e+001
1.950104e+003,2.812062e+001
1.951068e+003,3.022357e+001
1.952032e+003,2.747330e+001
1.952997e+003,2.224261e+001
1.953961e+003,2.147696e+001
1.954925e+003,2.576393e+001
1.955889e+003,2.735420e+001
1.956854e+003,2.425948e+001
1.957818e+003,2.230531e+001
1.958782e+003,2.241447e+001
1.959746e+003,2.315363e+001
1.960710e+003,2.392317e+001
1.961675e+003,2.440121e+001
1.962639e+003,2.461961e+001
1.963603e+003,2.490434e+001
1.964567e+003,2.590308e+001
1.965532e+003,2.719939e+001
1.966496e+003,2.700526e+001
1.967460e+003,2.469017e+001
1.968424e+003,2.242773e+001
1.969389e+003,2.122594e+001
1.970353e+003,2.084862e+001
1.971317e+003,2.170602e+001
1.972281e+003,2.291176e+001
1.973245e+003,2.356084e+001
1.974210e+003,2.363335e+001
1.975174e+003,2.258551e+001
1.976138e+003,2.078242e+001
1.977102e+003,2.004945e+001
1.978067e+003,2.099446e+001
1.979031e+003,2.259866e+001
1.979995e+003,2.415961e+001
1.980959e+003,2.498001e+001
1.981924e+003,2.346495e+001
1.982888e+003,2.024902e+001
1.983852e+003,1.852786e+001
1.984816e+003,1.816605e+001
1.985781e+003,1.908919e+001
1.986745e+003,2.194946e+001
1.987709e+003,2.397798e+001
1.988673e+003,2.357195e+001
1.989637e+003,2.289902e+001
1.990602e+003,2.368179e+001
1.991566e+003,2.474973e+001
1.992530e+003,2.475093e+001
1.993494e+003,2.410088e+001
1.994459e+003,2.313623e+001
1.995423e+003,2.112025e+001
1.996387e+003,2.041489e+001
1.997351e+003,2.205930e+001
1.998316e+003,2.313712e+001
1.999280e+003,2.331645e+001
2.000244e+003,2.333133e+001
2.001208e+003,2.348053e+001
2.002172e+003,2.353543e+001
2.003137e+003,2.260368e+001
2.004101e+003,2.135402e+001
2.005065e+003,2.167964e+001
2.006029e+003,2.364771e+001
2.006994e+003,2.505797e+001
2.007958e+003,2.477748e+001
2.008922e+003,2.381825e+001
2.009886e+003,2.302652e+001
2.010851e+003,2.261972e+001
2.011815e+003,2.236478e+001
2.012779e+003,2.233377e+001
2.013743e+003,2.311241e+001
2.014708e+003,2.416969e+001
2.015672e+003,2.397343e+001
2.016636e+003,2.273230e+001
2.017600e+003,2.258777e+001
2.018564e+003,2.431229e+001
2.019529e+003,2.623056e+001
2.020493e+003,2.699953e+001
2.021457e+003,2.700597e+001
2.022421e+003,2.629384e+001
2.023386e+003,2.498578e+001
2.024350e+003,2.497603e+001
2.025314e+003,2.626558e+001
2.026278e+003,2.681544e+001
2.027243e+003,2.640674e+001
2.028207e+003,2.608511e+001
2.029171e+003,2.609775e+001
2.030135e+003,2.624669e+001
2.031099e+003,2.635962e+001
2.032064e+003,2.655450e+001
2.033028e+003,2.698273e+001
2.033992e+003,2.736983e+001
2.034956e+003,2.789403e+001
2.035921e+003,2.957491e+001
2.036885e+003,3.011565e+001
2.037849e+003,2.826245e+001
2.038813e+003,2.774442e+001
2.039778e+003,2.953592e+001
2.040742e+003,2.993764e+001
2.041706e+003,2.686955e+001
2.042670e+003,2.387050e+001
2.043635e+003,2.390163e+001
2.044599e+003,2.556796e+001
2.045563e+003,2.687625e+001
2.046527e+003,2.765054e+001
2.047491e+003,2.739424e+001
2.048456e+003,2.571609e+001
2.049420e+003,2.481465e+001
2.050384e+003,2.493790e+001
2.051348e+003,2.554825e+001
2.052313e+003,2.762532e+001
2.053277e+003,2.942288e+001
2.054241e+003,2.920813e+001
2.055205e+003,2.830844e+001
2.056170e+003,2.815843e+001
2.057134e+003,2.834901e+001
2.058098e+003,2.812465e+001
2.059062e+003,2.756708e+001
2.060027e+003,2.690392e+001
2.060991e+003,2.603180e+001
2.061955e+003,2.547450e+001
2.062919e+003,2.585831e+001
2.063884e+003,2.647600e+001
2.064848e+003,2.716698e+001
2.065812e+003,2.768361e+001
2.066776e+003,2.646355e+001
2.067740e+003,2.404434e+001
2.068705e+003,2.290479e+001
2.069669e+003,2.337590e+001
2.070633e+003,2.392406e+001
2.071597e+003,2.376965e+001
2.072562e+003,2.323924e+001
2.073526e+003,2.290503e+001
2.074490e+003,2.293057e+001
2.075454e+003,2.286597e+001
2.076418e+003,2.247665e+001
2.077383e+003,2.148148e+001
2.078347e+003,1.981451e+001
2.079311e+003,2.000922e+001
2.080275e+003,2.294048e+001
2.081240e+003,2.579379e+001
2.082204e+003,2.733748e+001
2.083168e+003,2.742723e+001
2.084132e+003,2.581818e+001
2.085096e+003,2.292578e+001
2.086061e+003,1.935255e+001
2.087025e+003,1.619398e+001
2.087989e+003,1.626677e+001
2.088953e+003,1.969673e+001
2.089918e+003,2.048495e+001
2.090882e+003,1.741243e+001
2.091846e+003,1.720901e+001
2.092810e+003,2.206990e+001
2.093775e+003,2.521375e+001
2.094739e+003,2.365578e+001
2.095703e+003,2.095732e+001
2.096667e+003,1.902113e+001
2.097632e+003,1.807901e+001
2.098596e+003,1.917142e+001
2.099560e+003,2.175616e+001
2.100524e+003,2.214940e+001
2.101489e+003,1.929080e+001
2.102453e+003,1.743604e+001
2.103417e+003,1.748466e+001
2.104381e+003,1.755090e+001
2.105345e+003,1.789345e+001
2.106310e+003,1.791719e+001
2.107274e+003,1.659891e+001
2.108238e+003,1.585316e+001
2.109202e+003,1.731059e+001
2.110167e+003,1.964313e+001
2.111131e+003,2.115541e+001
2.112095e+003,2.168323e+001
2.113059e+003,2.190784e+001
2.114023e+003,2.266075e+001
2.114988e+003,2.276724e+001
2.115952e+003,2.050638e+001
2.116916e+003,1.785480e+001
2.117880e+003,1.431575e+001
2.118845e+003,1.223758e+001
2.119809e+003,1.507306e+001
2.120773e+003,1.875627e+001
2.121737e+003,1.878677e+001
2.122702e+003,1.664954e+001
2.123666e+003,1.510342e+001
2.124630e+003,1.444710e+001
2.125594e+003,1.419785e+001
2.126559e+003,1.433426e+001
2.127523e+003,1.512868e+001
2.128487e+003,1.758530e+001
2.129451e+003,1.975966e+001
2.130416e+003,2.007944e+001
2.131380e+003,1.980743e+001
2.132344e+003,1.984659e+001
2.133308e+003,2.003415e+001
2.134272e+003,2.029477e+001
2.135237e+003,2.011269e+001
2.136201e+003,1.851988e+001
2.137165e+003,1.607603e+001
2.138129e+003,1.498689e+001
2.139094e+003,1.606886e+001
2.140058e+003,1.711136e+001
2.141022e+003,1.635674e+001
2.141986e+003,1.493118e+001
2.142950e+003,1.317500e+001
2.143915e+003,1.231883e+001
2.144879e+003,1.469446e+001
2.145843e+003,1.783482e+001
2.146807e+003,1.823674e+001
2.147772e+003,1.666472e+001
2.148736e+003,1.475082e+001
2.149700e+003,1.311577e+001
2.150664e+003,1.296889e+001
2.151629e+003,1.479050e+001
2.152593e+003,1.655998e+001
2.153557e+003,1.695393e+001
2.154521e+003,1.658968e+001
2.155486e+003,1.528888e+001
2.156450e+003,1.372435e+001
2.157414e+003,1.356691e+001
2.158378e+003,1.401587e+001
2.159343e+003,1.282527e+001
2.160307e+003,1.074472e+001
2.161271e+003,1.064908e+001
2.162235e+003,1.268712e+001
2.163199e+003,1.454965e+001
2.164164e+003,1.516077e+001
2.165128e+003,1.483217e+001
2.166092e+003,1.367914e+001
2.167056e+003,1.244466e+001
2.168021e+003,1.178334e+001
2.168985e+003,1.136456e+001
2.169949e+003,1.125938e+001
2.170913e+003,1.139128e+001
2.171877e+003,1.172932e+001
2.172842e+003,1.201895e+001
2.173806e+003,1.030594e+001
2.174770e+003,6.853577e+000
2.175734e+003,5.870422e+000
2.176699e+003,9.073090e+000
2.177663e+003,1.263692e+001
2.178627e+003,1.345734e+001
2.179591e+003,1.262839e+001
2.180556e+003,1.086020e+001
2.181520e+003,8.683563e+000
2.182484e+003,7.614899e+000
2.183448e+003,7.660934e+000
2.184413e+003,9.193192e+000
2.185377e+003,1.136082e+001
2.186341e+003,1.064301e+001
2.187305e+003,6.904465e+000
2.188270e+003,4.117661e+000
2.189234e+003,4.128693e+000
2.190198e+003,5.459000e+000
2.191162e+003,6.659943e+000
2.192126e+003,7.688156e+000
2.193091e+003,9.239517e+000
2.194055e+003,1.081880e+001
2.195019e+003,1.112776e+001
2.195983e+003,1.047685e+001
2.196948e+003,8.703766e+000
2.197912e+003,6.314224e+000
2.198876e+003,5.477692e+000
2.199840e+003,6.218719e+000
2.200804e+003,6.846237e+000
2.201769e+003,6.701645e+000
2.202733e+003,6.666656e+000
2.203697e+003,7.561005e+000
2.204661e+003,8.200531e+000
2.205626e+003,6.491394e+000
2.206590e+003,3.997589e+000
2.207554e+003,3.884369e+000
2.208518e+003,5.073929e+000
2.209483e+003,5.482178e+000
2.210447e+003,5.323486e+000
2.211411e+003,5.202179e+000
2.212375e+003,5.235382e+000
2.213340e+003,5.585938e+000
2.214304e+003,6.231277e+000
2.215268e+003,6.339432e+000
2.216232e+003,5.238419e+000
2.217197e+003,4.073944e+000
2.218161e+003,4.614944e+000
2.219125e+003,5.602646e+000
2.220089e+003,4.160767e+000
2.221053e+003,2.098557e+000
2.222018e+003,3.342163e+000
2.222982e+003,6.242065e+000
2.223946e+003,6.981369e+000
2.224910e+003,6.022339e+000
2.225875e+003,6.175690e+000
2.226839e+003,7.730515e+000
2.227803e+003,7.924194e+000
2.228767e+003,5.541580e+000
2.229731e+003,4.932419e+000
2.230696e+003,1.082693e+001
2.231660e+003,1.711043e+001
2.232624e+003,1.477000e+001
2.233588e+003,8.781235e+000
2.234553e+003,6.705261e+000
2.235517e+003,7.025162e+000
2.236481e+003,6.531204e+000
2.237445e+003,5.260468e+000
2.238410e+003,5.179886e+000
2.239374e+003,6.422165e+000
2.240338e+003,7.134964e+000
2.241302e+003,6.579071e+000
2.242267e+003,5.439224e+000
2.243231e+003,4.039261e+000
2.244195e+003,3.342590e+000
2.245159e+003,4.669479e+000
2.246124e+003,6.578064e+000
2.247088e+003,8.244400e+000
2.248052e+003,8.752670e+000
2.249016e+003,6.057175e+000
2.249980e+003,2.072556e+000
2.250945e+003,1.930237e-002
2.251909e+003,0.000000e+000
2.252873e+003,5.175476e-001
2.253837e+003,9.686890e-001
2.254802e+003,1.744629e+000
2.255766e+003,3.236389e+000
2.256730e+003,4.554642e+000
2.257694e+003,4.834961e+000
2.258658e+003,4.665970e+000
2.259623e+003,4.134644e+000
2.260587e+003,3.811920e+000
2.261551e+003,4.542160e+000
2.262515e+003,5.660706e+000
2.263480e+003,6.760162e+000
2.264444e+003,7.486725e+000
2.265408e+003,6.782974e+000
2.266372e+003,4.806458e+000
2.267337e+003,3.269104e+000
2.268301e+003,2.746536e+000
2.269265e+003,2.515778e+000
2.270229e+003,2.988495e+000
2.271194e+003,3.827942e+000
2.272158e+003,3.223312e+000
2.273122e+003,3.116058e+000
2.274086e+003,6.055237e+000
2.275051e+003,9.078751e+000
2.276015e+003,9.556152e+000
2.276979e+003,9.252701e+000
2.277943e+003,1.045821e+001
2.278907e+003,1.248395e+001
2.279872e+003,1.320332e+001
2.280836e+003,1.227721e+001
2.281800e+003,1.167511e+001
2.282764e+003,1.216701e+001
2.283729e+003,1.283521e+001
2.284693e+003,1.475476e+001
2.285657e+003,1.554863e+001
2.286621e+003,1.225290e+001
2.287585e+003,9.271667e+000
2.288550e+003,1.016840e+001
2.289514e+003,1.173824e+001
2.290478e+003,1.051668e+001
2.291442e+003,8.485001e+000
2.292407e+003,9.069016e+000
2.293371e+003,1.153297e+001
2.294335e+003,1.277948e+001
2.295299e+003,1.257069e+001
2.296264e+003,1.222298e+001
2.297228e+003,1.157857e+001
2.298192e+003,1.171986e+001
2.299156e+003,1.361726e+001
2.300121e+003,1.487462e+001
2.301085e+003,1.371484e+001
2.302049e+003,1.318405e+001
2.303013e+003,1.599181e+001
2.303978e+003,1.867455e+001
2.304942e+003,1.682010e+001
2.305906e+003,1.291176e+001
2.306870e+003,1.303668e+001
2.307834e+003,1.664468e+001
2.308799e+003,1.858746e+001
2.309763e+003,1.896399e+001
2.310727e+003,1.912195e+001
2.311691e+003,1.882104e+001
2.312656e+003,1.922003e+001
2.313620e+003,2.058681e+001
2.314584e+003,2.099072e+001
2.315548e+003,1.972145e+001
2.316512e+003,1.880247e+001
2.317477e+003,1.984085e+001
2.318441e+003,2.174698e+001
2.319405e+003,2.269252e+001
2.320369e+003,2.341231e+001
2.321334e+003,2.575591e+001
2.322298e+003,2.894456e+001
2.323262e+003,3.203102e+001
2.324226e+003,3.528566e+001
2.325191e+003,3.790317e+001
2.326155e+003,3.979478e+001
2.327119e+003,4.173949e+001
2.328083e+003,4.364296e+001
2.329048e+003,4.480290e+001
2.330012e+003,4.522520e+001
2.330976e+003,4.506842e+001
2.331940e+003,4.381561e+001
2.332905e+003,4.252417e+001
2.333869e+003,4.295775e+001
2.334833e+003,4.418610e+001
2.335797e+003,4.560202e+001
2.336761e+003,4.691197e+001
2.337726e+003,4.710236e+001
2.338690e+003,4.655376e+001
2.339654e+003,4.589781e+001
2.340618e+003,4.591953e+001
2.341583e+003,4.797815e+001
2.342547e+003,5.169936e+001
2.343511e+003,5.445969e+001
2.344475e+003,5.531963e+001
2.345439e+003,5.673187e+001
2.346404e+003,6.041693e+001
2.347368e+003,6.295485e+001
2.348332e+003,6.343701e+001
2.349296e+003,6.329453e+001
2.350261e+003,6.176593e+001
2.351225e+003,6.144731e+001
2.352189e+003,6.396448e+001
2.353153e+003,6.781580e+001
2.354118e+003,7.226994e+001
2.355082e+003,7.652036e+001
2.356046e+003,7.914413e+001
2.357010e+003,8.059839e+001
2.357975e+003,8.198677e+001
2.358939e+003,8.307925e+001
2.359903e+003,8.453326e+001
2.360867e+003,8.542809e+001
2.361832e+003,8.757907e+001
2.362796e+003,9.253375e+001
2.363760e+003,9.649792e+001
2.364724e+003,9.829410e+001
2.365688e+003,9.980850e+001
2.366653e+003,1.014214e+002
2.367617e+003,1.033308e+002
2.368581e+003,1.063642e+002
2.369545e+003,1.099126e+002
2.370510e+003,1.125582e+002
2.371474e+003,1.146346e+002
2.372438e+003,1.164510e+002
2.373402e+003,1.180694e+002
2.374366e+003,1.207156e+002
2.375331e+003,1.241140e+002
2.376295e+003,1.263629e+002
2.377259e+003,1.275600e+002
2.378223e+003,1.297701e+002
2.379188e+003,1.332532e+002
2.380152e+003,1.360049e+002
2.381116e+003,1.370736e+002
2.382080e+003,1.370630e+002
2.383045e+003,1.357104e+002
2.384009e+003,1.349987e+002
2.384973e+003,1.375091e+002
2.385937e+003,1.409528e+002
2.386902e+003,1.444256e+002
2.387866e+003,1.471212e+002
2.388830e+003,1.464878e+002
2.389794e+003,1.446431e+002
2.390759e+003,1.454899e+002
2.391723e+003,1.478328e+002
2.392687e+003,1.478915e+002
2.393651e+003,1.459460e+002
2.394615e+003,1.460458e+002
2.395580e+003,1.494236e+002
2.396544e+003,1.512340e+002
2.397508e+003,1.490213e+002
2.398472e+003,1.479194e+002
2.399437e+003,1.499697e+002
2.400401e+003,1.517037e+002
2.401365e+003,1.513518e+002
2.402329e+003,1.512622e+002
2.403293e+003,1.528859e+002
2.404258e+003,1.551324e+002
2.405222e+003,1.571461e+002
2.406186e+003,1.591698e+002
2.407150e+003,1.612100e+002
2.408115e+003,1.631113e+002
2.409079e+003,1.647364e+002
2.410043e+003,1.660320e+002
2.411007e+003,1.666664e+002
2.411972e+003,1.667061e+002
2.412936e+003,1.653618e+002
2.413900e+003,1.627814e+002
2.414864e+003,1.628011e+002
2.415829e+003,1.663075e+002
2.416793e+003,1.689897e+002
2.417757e+003,1.685919e+002
2.418721e+003,1.678974e+002
2.419686e+003,1.692526e+002
2.420650e+003,1.714017e+002
2.421614e+003,1.728990e+002
2.422578e+003,1.743966e+002
2.423542e+003,1.776995e+002
2.424507e+003,1.800405e+002
2.425471e+003,1.770566e+002
2.426435e+003,1.730083e+002
2.427399e+003,1.741721e+002
2.428364e+003,1.774255e+002
2.429328e+003,1.757973e+002
2.430292e+003,1.703222e+002
2.431256e+003,1.681295e+002
2.432220e+003,1.705565e+002
2.433185e+003,1.727384e+002
2.434149e+003,1.745088e+002
2.435113e+003,1.743211e+002
2.436077e+003,1.709553e+002
2.437042e+003,1.684584e+002
2.438006e+003,1.680042e+002
2.438970e+003,1.676559e+002
2.439934e+003,1.665635e+002
2.440899e+003,1.653693e+002
2.441863e+003,1.648009e+002
2.442827e+003,1.642319e+002
2.443791e+003,1.622767e+002
2.444756e+003,1.594258e+002
2.445720e+003,1.576518e+002
2.446684e+003,1.568800e+002
2.447648e+003,1.570599e+002
2.448613e+003,1.577842e+002
2.449577e+003,1.572873e+002
2.450541e+003,1.556498e+002
2.451505e+003,1.534959e+002
2.452469e+003,1.511881e+002
2.453434e+003,1.487657e+002
2.454398e+003,1.461077e+002
2.455362e+003,1.446362e+002
2.456326e+003,1.459736e+002
2.457291e+003,1.470564e+002
2.458255e+003,1.450071e+002
2.459219e+003,1.421963e+002
2.460183e+003,1.381458e+002
2.461147e+003,1.349178e+002
2.462112e+003,1.355882e+002
2.463076e+003,1.371301e+002
2.464040e+003,1.367411e+002
2.465004e+003,1.351032e+002
2.465969e+003,1.333520e+002
2.466933e+003,1.323205e+002
2.467897e+003,1.328878e+002
2.468861e+003,1.342912e+002
2.469826e+003,1.341778e+002
2.470790e+003,1.326121e+002
2.471754e+003,1.302219e+002
2.472718e+003,1.271419e+002
2.473683e+003,1.253896e+002
2.474647e+003,1.246135e+002
2.475611e+003,1.243035e+002
2.476575e+003,1.246044e+002
2.477540e+003,1.237828e+002
2.478504e+003,1.210651e+002
2.479468e+003,1.188907e+002
2.480432e+003,1.190750e+002
2.481396e+003,1.195006e+002
2.482361e+003,1.177564e+002
2.483325e+003,1.163440e+002
2.484289e+003,1.184801e+002
2.485253e+003,1.202925e+002
2.486218e+003,1.175156e+002
2.487182e+003,1.132238e+002
2.488146e+003,1.104551e+002
2.489110e+003,1.093029e+002
2.490074e+003,1.095271e+002
2.491039e+003,1.109722e+002
2.492003e+003,1.134357e+002
2.492967e+003,1.161421e+002
2.493931e+003,1.162686e+002
2.494896e+003,1.135679e+002
2.495860e+003,1.117161e+002
2.496824e+003,1.109859e+002
2.497788e+003,1.105231e+002
2.498753e+003,1.099541e+002
2.499717e+003,1.097030e+002
2.500681e+003,1.100810e+002
2.501645e+003,1.101672e+002
2.502610e+003,1.093608e+002
2.503574e+003,1.084138e+002
2.504538e+003,1.081520e+002
2.505502e+003,1.091523e+002
2.506467e+003,1.123646e+002
2.507431e+003,1.151641e+002
2.508395e+003,1.132773e+002
2.509359e+003,1.102455e+002
2.510323e+003,1.105517e+002
2.511288e+003,1.122621e+002
2.512252e+003,1.128432e+002
2.513216e+003,1.127557e+002
2.514180e+003,1.133203e+002
2.515145e+003,1.142777e+002
2.516109e+003,1.144176e+002
2.517073e+003,1.136243e+002
2.518037e+003,1.127673e+002
2.519001e+003,1.118221e+002
2.519966e+003,1.110870e+002
2.520930e+003,1.104168e+002
2.521894e+003,1.104464e+002
2.522858e+003,1.113744e+002
2.523823e+003,1.126841e+002
2.524787e+003,1.143628e+002
2.525751e+003,1.145887e+002
2.526715e+003,1.125584e+002
2.527680e+003,1.101444e+002
2.528644e+003,1.088270e+002
2.529608e+003,1.088141e+002
2.530572e+003,1.103672e+002
2.531537e+003,1.118259e+002
2.532501e+003,1.103689e+002
2.533465e+003,1.088514e+002
2.534429e+003,1.120210e+002
2.535394e+003,1.162799e+002
2.536358e+003,1.168038e+002
2.537322e+003,1.147733e+002
2.538286e+003,1.123998e+002
2.539250e+003,1.100109e+002
2.540215e+003,1.067333e+002
2.541179e+003,1.028752e+002
2.542143e+003,1.026619e+002
2.543107e+003,1.074950e+002
2.544072e+003,1.106867e+002
2.545036e+003,1.116262e+002
2.546000e+003,1.107462e+002
2.546964e+003,1.076303e+002
2.547928e+003,1.056029e+002
2.548893e+003,1.053301e+002
2.549857e+003,1.055299e+002
2.550821e+003,1.058052e+002
2.551785e+003,1.061916e+002
2.552750e+003,1.066622e+002
2.553714e+003,1.063050e+002
2.554678e+003,1.041090e+002
2.555642e+003,1.018102e+002
2.556607e+003,1.004996e+002
2.557571e+003,9.973735e+001
2.558535e+003,9.994200e+001
2.559499e+003,1.000519e+002
2.560464e+003,9.900333e+001
2.561428e+003,9.835918e+001
2.562392e+003,1.004220e+002
2.563356e+003,1.027421e+002
2.564321e+003,1.007201e+002
2.565285e+003,9.602359e+001
2.566249e+003,9.375807e+001
2.567213e+003,9.356612e+001
2.568177e+003,9.300804e+001
2.569142e+003,9.214748e+001
2.570106e+003,9.192543e+001
2.571070e+003,9.246121e+001
2.572034e+003,9.101572e+001
2.572999e+003,8.778696e+001
2.573963e+003,8.587726e+001
2.574927e+003,8.573367e+001
2.575891e+003,8.646661e+001
2.576855e+003,8.746048e+001
2.577820e+003,8.741576e+001
2.578784e+003,8.597525e+001
2.579748e+003,8.494960e+001
2.580712e+003,8.570876e+001
2.581677e+003,8.630876e+001
2.582641e+003,8.488464e+001
2.583605e+003,8.334335e+001
2.584569e+003,8.345830e+001
2.585534e+003,8.334862e+001
2.586498e+003,8.173512e+001
2.587462e+003,7.984425e+001
2.588426e+003,7.869518e+001
2.589391e+003,7.802042e+001
2.590355e+003,7.770091e+001
2.591319e+003,7.758574e+001
2.592283e+003,7.701280e+001
2.593248e+003,7.609215e+001
2.594212e+003,7.481755e+001
2.595176e+003,7.353217e+001
2.596140e+003,7.328036e+001
2.597104e+003,7.349500e+001
2.598069e+003,7.288545e+001
2.599033e+003,7.143396e+001
2.599997e+003,6.966296e+001
2.600961e+003,6.795880e+001
2.601926e+003,6.698825e+001
2.602890e+003,6.685555e+001
2.603854e+003,6.679866e+001
2.604818e+003,6.688754e+001
2.605782e+003,6.586412e+001
2.606747e+003,6.342894e+001
2.607711e+003,6.225136e+001
2.608675e+003,6.290900e+001
2.609639e+003,6.377939e+001
2.610604e+003,6.430859e+001
2.611568e+003,6.467523e+001
2.612532e+003,6.490785e+001
2.613496e+003,6.488533e+001
2.614461e+003,6.430664e+001
2.615425e+003,6.356523e+001
2.616389e+003,6.339539e+001
2.617353e+003,6.316629e+001
2.618318e+003,6.262956e+001
2.619282e+003,6.183185e+001
2.620246e+003,6.087419e+001
2.621210e+003,6.038927e+001
2.622175e+003,5.990805e+001
2.623139e+003,5.967120e+001
2.624103e+003,6.055447e+001
2.625067e+003,6.151712e+001
2.626031e+003,6.109654e+001
2.626996e+003,6.034837e+001
2.627960e+003,6.054619e+001
2.628924e+003,6.097969e+001
2.629888e+003,6.079643e+001
2.630853e+003,5.981703e+001
2.631817e+003,5.737840e+001
2.632781e+003,5.527463e+001
2.633745e+003,5.644290e+001
2.634709e+003,5.937485e+001
2.635674e+003,6.036275e+001
2.636638e+003,5.901917e+001
2.637602e+003,5.807057e+001
2.638566e+003,5.915866e+001
2.639531e+003,5.984306e+001
2.640495e+003,5.852330e+001
2.641459e+003,5.670700e+001
2.642423e+003,5.435945e+001
2.643388e+003,5.310242e+001
2.644352e+003,5.314377e+001
2.645316e+003,5.336349e+001
2.646280e+003,5.330339e+001
2.647245e+003,5.316594e+001
2.648209e+003,5.354503e+001
2.649173e+003,5.334178e+001
2.650137e+003,5.056439e+001
2.651102e+003,4.804904e+001
2.652066e+003,4.806171e+001
2.653030e+003,4.880910e+001
2.653994e+003,5.118341e+001
2.654958e+003,5.335199e+001
2.655923e+003,5.329338e+001
2.656887e+003,5.320804e+001
2.657851e+003,5.494902e+001
2.658815e+003,5.605788e+001
2.659780e+003,5.423056e+001
2.660744e+003,5.107799e+001
2.661708e+003,4.930791e+001
2.662672e+003,4.880000e+001
2.663636e+003,4.916222e+001
2.664601e+003,5.001035e+001
2.665565e+003,5.037274e+001
2.666529e+003,5.032719e+001
2.667493e+003,5.006696e+001
2.668458e+003,4.962988e+001
2.669422e+003,4.869232e+001
2.670386e+003,4.701399e+001
2.671350e+003,4.492316e+001
2.672315e+003,4.322975e+001
2.673279e+003,4.264403e+001
2.674243e+003,4.271391e+001
2.675207e+003,4.266519e+001
2.676172e+003,4.271616e+001
2.677136e+003,4.216347e+001
2.678100e+003,4.119664e+001
2.679064e+003,4.182855e+001
2.680029e+003,4.356178e+001
2.680993e+003,4.315762e+001
2.681957e+003,4.069119e+001
2.682921e+003,3.970407e+001
2.683885e+003,4.100938e+001
2.684850e+003,4.177164e+001
2.685814e+003,4.126917e+001
2.686778e+003,4.099550e+001
2.687742e+003,4.112910e+001
2.688707e+003,4.126350e+001
2.689671e+003,4.078841e+001
2.690635e+003,3.941559e+001
2.691599e+003,3.718880e+001
2.692563e+003,3.582115e+001
2.693528e+003,3.617940e+001
2.694492e+003,3.681204e+001
2.695456e+003,3.661917e+001
2.696420e+003,3.612561e+001
2.697385e+003,3.595042e+001
2.698349e+003,3.555008e+001
2.699313e+003,3.406458e+001
2.700277e+003,3.272589e+001
2.701242e+003,3.228993e+001
2.702206e+003,3.179172e+001
2.703170e+003,3.085495e+001
2.704134e+003,2.978625e+001
2.705099e+003,2.889401e+001
2.706063e+003,2.859711e+001
2.707027e+003,2.920566e+001
2.707991e+003,3.006761e+001
2.708956e+003,2.981223e+001
2.709920e+003,2.861160e+001
2.710884e+003,2.813545e+001
2.711848e+003,2.844513e+001
2.712813e+003,2.924055e+001
2.713777e+003,3.026457e+001
2.714741e+003,3.010077e+001
2.715705e+003,2.860889e+001
2.716669e+003,2.742863e+001
2.717634e+003,2.673849e+001
2.718598e+003,2.520576e+001
2.719562e+003,2.353929e+001
2.720526e+003,2.357118e+001
2.721490e+003,2.403572e+001
2.722455e+003,2.311942e+001
2.723419e+003,2.156088e+001
2.724383e+003,2.147023e+001
2.725347e+003,2.272215e+001
2.726312e+003,2.370338e+001
2.727276e+003,2.387053e+001
2.728240e+003,2.446729e+001
2.729204e+003,2.593810e+001
2.730169e+003,2.587950e+001
2.731133e+003,2.317296e+001
2.732097e+003,2.130197e+001
2.733061e+003,2.195642e+001
2.734026e+003,2.099312e+001
2.734990e+003,1.838162e+001
2.735954e+003,1.781853e+001
2.736918e+003,1.889946e+001
2.737883e+003,1.960231e+001
2.738847e+003,1.931604e+001
2.739811e+003,1.930321e+001
2.740775e+003,1.998952e+001
2.741740e+003,1.954514e+001
2.742704e+003,1.767947e+001
2.743668e+003,1.731815e+001
2.744632e+003,2.004874e+001
2.745596e+003,2.220210e+001
2.746561e+003,2.092636e+001
2.747525e+003,1.901691e+001
2.748489e+003,1.844081e+001
2.749453e+003,1.757730e+001
2.750417e+003,1.584206e+001
2.751382e+003,1.567952e+001
2.752346e+003,1.787604e+001
2.753310e+003,1.964000e+001
2.754274e+003,1.905367e+001
2.755239e+003,1.752577e+001
2.756203e+003,1.635928e+001
2.757167e+003,1.570370e+001
2.758131e+003,1.626193e+001
2.759096e+003,1.627826e+001
2.760060e+003,1.391563e+001
2.761024e+003,1.202766e+001
2.761988e+003,1.233005e+001
2.762953e+003,1.367648e+001
2.763917e+003,1.590067e+001
2.764881e+003,1.709769e+001
2.765845e+003,1.519435e+001
2.766810e+003,1.289362e+001
2.767774e+003,1.473616e+001
2.768738e+003,1.794566e+001
2.769702e+003,1.739099e+001
2.770667e+003,1.602106e+001
2.771631e+003,1.695653e+001
2.772595e+003,1.739810e+001
2.773559e+003,1.494203e+001
2.774523e+003,1.252739e+001
2.775488e+003,1.353296e+001
2.776452e+003,1.634035e+001
2.777416e+003,1.768159e+001
2.778380e+003,1.650331e+001
2.779344e+003,1.494325e+001
2.780309e+003,1.461819e+001
2.781273e+003,1.554579e+001
2.782237e+003,1.757956e+001
2.783201e+003,1.803772e+001
2.784166e+003,1.675761e+001
2.785130e+003,1.731071e+001
2.786094e+003,1.866293e+001
2.787058e+003,1.825941e+001
2.788023e+003,1.687524e+001
2.788987e+003,1.515668e+001
2.789951e+003,1.328108e+001
2.790915e+003,1.366281e+001
2.791880e+003,1.580319e+001
2.792844e+003,1.552602e+001
2.793808e+003,1.395221e+001
2.794772e+003,1.353976e+001
2.795737e+003,1.343933e+001
2.796701e+003,1.443262e+001
2.797665e+003,1.567476e+001
2.798629e+003,1.398537e+001
2.799594e+003,1.083978e+001
2.800558e+003,1.031737e+001
2.801522e+003,1.201906e+001
2.802486e+003,1.424626e+001
2.803450e+003,1.632593e+001
2.804415e+003,1.666969e+001
2.805379e+003,1.571606e+001
2.806343e+003,1.549945e+001
2.807307e+003,1.668712e+001
2.808271e+003,1.550783e+001
2.809236e+003,1.180905e+001
2.810200e+003,1.076707e+001
2.811164e+003,1.291455e+001
2.812128e+003,1.422981e+001
2.813093e+003,1.422809e+001
2.814057e+003,1.406796e+001
2.815021e+003,1.204774e+001
2.815985e+003,1.084239e+001
2.816950e+003,1.187592e+001
2.817914e+003,1.301611e+001
2.818878e+003,1.333876e+001
2.819842e+003,1.204358e+001
2.820807e+003,1.016571e+001
2.821771e+003,9.575821e+000
2.822735e+003,9.802170e+000
2.823699e+003,9.811417e+000
2.824664e+003,1.009598e+001
2.825628e+003,1.049228e+001
2.826592e+003,1.121230e+001
2.827556e+003,1.229028e+001
2.828521e+003,1.297850e+001
2.829485e+003,1.203841e+001
2.830449e+003,1.026277e+001
2.831413e+003,9.420090e+000
2.832377e+003,9.226059e+000
2.833342e+003,8.853622e+000
2.834306e+003,8.462357e+000
2.835270e+003,8.586792e+000
2.836234e+003,9.217010e+000
2.837198e+003,9.478088e+000
2.838163e+003,8.993179e+000
2.839127e+003,1.022797e+001
2.840091e+003,1.340430e+001
2.841055e+003,1.443915e+001
2.842020e+003,1.302287e+001
2.842984e+003,1.188489e+001
2.843948e+003,1.162241e+001
2.844912e+003,1.150468e+001
2.845877e+003,1.133916e+001
2.846841e+003,1.107805e+001
2.847805e+003,1.065469e+001
2.848769e+003,1.024440e+001
2.849734e+003,9.561691e+000
2.850698e+003,9.516006e+000
2.851662e+003,1.025856e+001
2.852626e+003,9.015411e+000
2.853591e+003,6.251923e+000
2.854555e+003,5.687576e+000
2.855519e+003,7.461411e+000
2.856483e+003,1.017838e+001
2.857448e+003,1.284778e+001
2.858412e+003,1.268568e+001
2.859376e+003,8.875214e+000
2.860340e+003,7.880569e+000
2.861304e+003,1.180621e+001
2.862269e+003,1.230431e+001
2.863233e+003,8.584015e+000
2.864197e+003,7.207016e+000
2.865161e+003,8.926025e+000
2.866125e+003,8.661392e+000
2.867090e+003,5.822952e+000
2.868054e+003,4.364258e+000
2.869018e+003,5.110519e+000
2.869982e+003,5.898758e+000
2.870947e+003,6.913254e+000
2.871911e+003,7.822037e+000
2.872875e+003,7.501968e+000
2.873839e+003,7.531448e+000
2.874804e+003,8.141190e+000
2.875768e+003,7.894226e+000
2.876732e+003,6.920303e+000
2.877696e+003,6.280807e+000
2.878661e+003,6.199234e+000
2.879625e+003,7.012238e+000
2.880589e+003,8.419937e+000
2.881553e+003,8.062515e+000
2.882518e+003,5.054688e+000
2.883482e+003,4.163620e+000
2.884446e+003,5.987381e+000
2.885410e+003,6.459427e+000
2.886375e+003,5.574677e+000
2.887339e+003,6.168076e+000
2.888303e+003,7.989426e+000
2.889267e+003,8.079178e+000
2.890231e+003,6.710327e+000
2.891196e+003,7.167511e+000
2.892160e+003,9.758240e+000
2.893124e+003,1.092348e+001
2.894088e+003,9.971863e+000
2.895052e+003,9.526794e+000
2.896017e+003,9.568344e+000
2.896981e+003,1.063693e+001
2.897945e+003,1.251353e+001
2.898909e+003,1.386043e+001
2.899874e+003,1.453970e+001
2.900838e+003,1.443413e+001
2.901802e+003,1.392209e+001
2.902766e+003,1.402681e+001
2.903731e+003,1.488379e+001
2.904695e+003,1.612125e+001
2.905659e+003,1.774176e+001
2.906623e+003,1.722009e+001
2.907588e+003,1.482784e+001
2.908552e+003,1.546858e+001
2.909516e+003,1.843536e+001
2.910480e+003,2.137265e+001
2.911445e+003,2.359444e+001
2.912409e+003,2.382072e+001
2.913373e+003,2.301239e+001
2.914337e+003,2.447118e+001
2.915302e+003,2.779053e+001
2.916266e+003,2.925908e+001
2.917230e+003,2.901761e+001
2.918194e+003,2.875264e+001
2.919158e+003,2.843727e+001
2.920123e+003,2.759972e+001
2.921087e+003,2.685912e+001
2.922051e+003,2.763348e+001
2.923015e+003,2.944681e+001
2.923979e+003,3.163680e+001
2.924944e+003,3.370502e+001
2.925908e+003,3.476785e+001
2.926872e+003,3.516727e+001
2.927836e+003,3.611143e+001
2.928801e+003,3.718529e+001
2.929765e+003,3.595598e+001
2.930729e+003,3.391312e+001
2.931693e+003,3.425696e+001
2.932658e+003,3.591965e+001
2.933622e+003,3.742686e+001
2.934586e+003,3.886639e+001
2.935550e+003,4.101884e+001
2.936515e+003,4.291698e+001
2.937479e+003,4.313052e+001
2.938443e+003,4.219832e+001
2.939407e+003,4.076529e+001
2.940372e+003,3.984837e+001
2.941336e+003,4.251239e+001
2.942300e+003,4.603951e+001
2.943264e+003,4.716756e+001
2.944229e+003,4.726469e+001
2.945193e+003,4.795169e+001
2.946157e+003,4.803040e+001
2.947121e+003,4.602919e+001
2.948085e+003,4.417488e+001
2.949050e+003,4.511282e+001
2.950014e+003,4.742172e+001
2.950978e+003,4.969740e+001
2.951942e+003,5.104468e+001
2.952906e+003,4.924190e+001
2.953871e+003,4.768474e+001
2.954835e+003,4.941541e+001
2.955799e+003,5.142224e+001
2.956763e+003,5.213188e+001
2.957728e+003,5.259904e+001
2.958692e+003,5.350703e+001
2.959656e+003,5.421893e+001
2.960620e+003,5.413586e+001
2.961585e+003,5.389949e+001
2.962549e+003,5.330557e+001
2.963513e+003,5.402847e+001
2.964477e+003,5.894211e+001
2.965442e+003,6.197118e+001
2.966406e+003,6.085324e+001
2.967370e+003,5.969354e+001
2.968334e+003,5.986446e+001
2.969299e+003,6.061615e+001
2.970263e+003,6.148193e+001
2.971227e+003,6.099207e+001
2.972191e+003,5.770842e+001
2.973156e+003,5.667163e+001
2.974120e+003,6.273575e+001
2.975084e+003,6.682129e+001
2.976048e+003,6.791028e+001
2.977012e+003,6.670538e+001
2.977977e+003,6.339561e+001
2.978941e+003,6.206186e+001
2.979905e+003,6.350366e+001
2.980869e+003,6.593271e+001
2.981833e+003,6.843761e+001
2.982798e+003,6.908556e+001
2.983762e+003,6.667914e+001
2.984726e+003,6.600517e+001
2.985690e+003,6.781496e+001
2.986655e+003,6.864404e+001
2.987619e+003,6.853329e+001
2.988583e+003,7.010991e+001
2.989547e+003,7.276068e+001
2.990512e+003,7.294031e+001
2.991476e+003,7.095549e+001
2.992440e+003,6.997641e+001
2.993404e+003,7.034193e+001
2.994369e+003,6.976596e+001
2.995333e+003,6.830951e+001
2.996297e+003,6.913190e+001
2.997261e+003,7.182649e+001
2.998226e+003,7.451363e+001
2.999190e+003,7.658525e+001
3.000154e+003,7.651576e+001
3.001118e+003,7.529462e+001
3.002083e+003,7.436427e+001
3.003047e+003,7.411977e+001
3.004011e+003,7.485086e+001
3.004975e+003,7.627919e+001
3.005939e+003,7.789528e+001
3.006904e+003,7.952090e+001
3.007868e+003,8.104939e+001
3.008832e+003,8.188779e+001
3.009796e+003,7.971373e+001
3.010760e+003,7.798297e+001
3.011725e+003,8.171684e+001
3.012689e+003,8.579568e+001
3.013653e+003,8.590797e+001
3.014617e+003,8.477318e+001
3.015582e+003,8.500226e+001
3.016546e+003,8.638771e+001
3.017510e+003,8.945271e+001
3.018474e+003,9.194881e+001
3.019439e+003,9.091229e+001
3.020403e+003,8.984129e+001
3.021367e+003,9.114894e+001
3.022331e+003,9.187590e+001
3.023296e+003,9.091125e+001
3.024260e+003,9.076341e+001
3.025224e+003,9.256061e+001
3.026188e+003,9.361754e+001
3.027153e+003,9.217178e+001
3.028117e+003,9.135667e+001
3.029081e+003,9.353023e+001
3.030045e+003,9.550876e+001
3.031010e+003,9.653935e+001
3.031974e+003,9.830386e+001
3.032938e+003,1.009999e+002
3.033902e+003,1.022559e+002
3.034866e+003,1.017661e+002
3.035831e+003,1.004866e+002
3.036795e+003,9.908761e+001
3.037759e+003,9.954343e+001
3.038723e+003,1.025879e+002
3.039688e+003,1.041302e+002
3.040652e+003,1.036556e+002
3.041616e+003,1.051352e+002
3.042580e+003,1.080644e+002
3.043544e+003,1.092924e+002
3.044509e+003,1.091353e+002
3.045473e+003,1.088387e+002
3.046437e+003,1.087080e+002
3.047401e+003,1.090228e+002
3.048366e+003,1.095206e+002
3.049330e+003,1.092733e+002
3.050294e+003,1.088371e+002
3.051258e+003,1.108100e+002
3.052223e+003,1.138646e+002
3.053187e+003,1.149307e+002
3.054151e+003,1.151215e+002
3.055115e+003,1.154098e+002
3.056080e+003,1.162288e+002
3.057044e+003,1.187438e+002
3.058008e+003,1.200808e+002
3.058972e+003,1.173402e+002
3.059937e+003,1.146087e+002
3.060901e+003,1.173464e+002
3.061865e+003,1.208193e+002
3.062829e+003,1.184461e+002
3.063793e+003,1.170048e+002
3.064758e+003,1.228031e+002
3.065722e+003,1.261289e+002
3.066686e+003,1.236100e+002
3.067650e+003,1.214438e+002
3.068615e+003,1.220169e+002
3.069579e+003,1.238201e+002
3.070543e+003,1.260018e+002
3.071507e+003,1.266919e+002
3.072471e+003,1.240659e+002
3.073436e+003,1.228393e+002
3.074400e+003,1.240686e+002
3.075364e+003,1.247994e+002
3.076328e+003,1.249298e+002
3.077293e+003,1.267347e+002
3.078257e+003,1.300261e+002
3.079221e+003,1.330292e+002
3.080185e+003,1.351028e+002
3.081150e+003,1.354532e+002
3.082114e+003,1.341319e+002
3.083078e+003,1.333716e+002
3.084042e+003,1.330928e+002
3.085007e+003,1.316868e+002
3.085971e+003,1.298749e+002
3.086935e+003,1.298882e+002
3.087899e+003,1.309226e+002
3.088864e+003,1.316386e+002
3.089828e+003,1.322849e+002
3.090792e+003,1.331444e+002
3.091756e+003,1.348219e+002
3.092720e+003,1.384689e+002
3.093685e+003,1.419507e+002
3.094649e+003,1.407904e+002
3.095613e+003,1.386044e+002
3.096577e+003,1.400112e+002
3.097542e+003,1.411801e+002
3.098506e+003,1.388543e+002
3.099470e+003,1.368852e+002
3.100434e+003,1.365583e+002
3.101398e+003,1.371095e+002
3.102363e+003,1.381304e+002
3.103327e+003,1.399055e+002
3.104291e+003,1.427881e+002
3.105255e+003,1.451558e+002
3.106220e+003,1.461671e+002
3.107184e+003,1.466682e+002
3.108148e+003,1.467467e+002
3.109112e+003,1.457355e+002
3.110077e+003,1.439908e+002
3.111041e+003,1.448277e+002
3.112005e+003,1.477168e+002
3.112969e+003,1.477665e+002
3.113934e+003,1.448876e+002
3.114898e+003,1.459751e+002
3.115862e+003,1.507338e+002
3.116826e+003,1.530052e+002
3.117791e+003,1.531140e+002
3.118755e+003,1.518416e+002
3.119719e+003,1.502675e+002
3.120683e+003,1.504000e+002
3.121647e+003,1.512919e+002
3.122612e+003,1.511892e+002
3.123576e+003,1.512498e+002
3.124540e+003,1.527145e+002
3.125504e+003,1.550714e+002
3.126469e+003,1.578655e+002
3.127433e+003,1.603170e+002
3.128397e+003,1.617346e+002
3.129361e+003,1.621022e+002
3.130325e+003,1.604713e+002
3.131290e+003,1.593471e+002
3.132254e+003,1.595018e+002
3.133218e+003,1.596262e+002
3.134182e+003,1.592813e+002
3.135147e+003,1.599651e+002
3.136111e+003,1.623882e+002
3.137075e+003,1.638446e+002
3.138039e+003,1.624429e+002
3.139004e+003,1.626905e+002
3.139968e+003,1.649980e+002
3.140932e+003,1.651267e+002
3.141896e+003,1.636458e+002
3.142861e+003,1.649752e+002
3.143825e+003,1.685170e+002
3.144789e+003,1.714482e+002
3.145753e+003,1.730597e+002
3.146718e+003,1.728242e+002
3.147682e+003,1.714773e+002
3.148646e+003,1.716942e+002
3.149610e+003,1.726025e+002
3.150574e+003,1.710854e+002
3.151539e+003,1.695320e+002
3.152503e+003,1.714461e+002
3.153467e+003,1.741423e+002
3.154431e+003,1.754136e+002
3.155396e+003,1.763923e+002
3.156360e+003,1.778398e+002
3.157324e+003,1.793459e+002
3.158288e+003,1.807225e+002
3.159252e+003,1.810165e+002
3.160217e+003,1.778198e+002
3.161181e+003,1.766242e+002
3.162145e+003,1.792605e+002
3.163109e+003,1.815504e+002
3.164074e+003,1.828982e+002
3.165038e+003,1.833775e+002
3.166002e+003,1.831907e+002
3.166966e+003,1.829971e+002
3.167931e+003,1.829599e+002
3.168895e+003,1.825797e+002
3.169859e+003,1.818930e+002
3.170823e+003,1.838463e+002
3.171788e+003,1.875277e+002
3.172752e+003,1.864550e+002
3.173716e+003,1.838108e+002
3.174680e+003,1.872082e+002
3.175645e+003,1.919548e+002
3.176609e+003,1.891875e+002
3.177573e+003,1.860275e+002
3.178537e+003,1.900283e+002
3.179501e+003,1.959464e+002
3.180466e+003,1.971833e+002
3.181430e+003,1.956649e+002
3.182394e+003,1.907016e+002
3.183358e+003,1.879155e+002
3.184323e+003,1.910682e+002
3.185287e+003,1.931642e+002
3.186251e+003,1.926047e+002
3.187215e+003,1.920815e+002
3.188179e+003,1.926451e+002
3.189144e+003,1.947680e+002
3.190108e+003,1.986436e+002
3.191072e+003,2.000483e+002
3.192036e+003,1.979567e+002
3.193001e+003,1.970546e+002
3.193965e+003,1.971175e+002
3.194929e+003,1.963757e+002
3.195893e+003,1.952237e+002
3.196858e+003,1.946822e+002
3.197822e+003,1.947038e+002
3.198786e+003,1.950442e+002
3.199750e+003,1.955798e+002
3.200715e+003,1.962390e+002
3.201679e+003,1.968597e+002
3.202643e+003,1.969001e+002
3.203607e+003,1.970614e+002
3.204572e+003,1.981475e+002
3.205536e+003,1.994649e+002
3.206500e+003,2.006776e+002
3.207464e+003,2.022523e+002
3.208428e+003,2.043181e+002
3.209393e+003,2.050156e+002
3.210357e+003,2.036641e+002
3.211321e+003,2.021373e+002
3.212285e+003,2.010970e+002
3.213250e+003,2.010205e+002
3.214214e+003,2.021053e+002
3.215178e+003,2.021895e+002
3.216142e+003,2.016066e+002
3.217106e+003,2.025020e+002
3.218071e+003,2.042344e+002
3.219035e+003,2.044615e+002
3.219999e+003,2.044975e+002
3.220963e+003,2.077542e+002
3.221928e+003,2.118079e+002
3.222892e+003,2.119927e+002
3.223856e+003,2.103587e+002
3.224820e+003,2.094281e+002
3.225785e+003,2.096600e+002
3.226749e+003,2.130078e+002
3.227713e+003,2.148343e+002
3.228677e+003,2.131864e+002
3.229642e+003,2.120730e+002
3.230606e+003,2.130000e+002
3.231570e+003,2.139308e+002
3.232534e+003,2.139075e+002
3.233499e+003,2.145724e+002
3.234463e+003,2.170773e+002
3.235427e+003,2.176540e+002
3.236391e+003,2.163940e+002
3.237355e+003,2.154208e+002
3.238320e+003,2.150919e+002
3.239284e+003,2.161555e+002
3.240248e+003,2.180491e+002
3.241212e+003,2.198130e+002
3.242177e+003,2.212160e+002
3.243141e+003,2.219487e+002
3.244105e+003,2.225433e+002
3.245069e+003,2.244524e+002
3.246033e+003,2.261216e+002
3.246998e+003,2.253430e+002
3.247962e+003,2.247563e+002
3.248926e+003,2.256841e+002
3.249890e+003,2.264906e+002
3.250855e+003,2.266956e+002
3.251819e+003,2.268932e+002
3.252783e+003,2.274485e+002
3.253747e+003,2.295909e+002
3.254712e+003,2.342552e+002
3.255676e+003,2.359160e+002
3.256640e+003,2.342681e+002
3.257604e+003,2.328507e+002
3.258569e+003,2.319601e+002
3.259533e+003,2.325711e+002
3.260497e+003,2.338762e+002
3.261461e+003,2.341190e+002
3.262426e+003,2.344406e+002
3.263390e+003,2.365956e+002
3.264354e+003,2.388882e+002
3.265318e+003,2.385558e+002
3.266282e+003,2.380399e+002
3.267247e+003,2.414445e+002
3.268211e+003,2.428677e+002
3.269175e+003,2.380764e+002
3.270139e+003,2.363250e+002
3.271104e+003,2.393947e+002
3.272068e+003,2.431819e+002
3.273032e+003,2.459584e+002
3.273996e+003,2.454132e+002
3.274960e+003,2.411710e+002
3.275925e+003,2.407257e+002
3.276889e+003,2.442143e+002
3.277853e+003,2.473433e+002
3.278817e+003,2.499720e+002
3.279782e+003,2.515906e+002
3.280746e+003,2.525009e+002
3.281710e+003,2.532841e+002
3.282674e+003,2.531421e+002
3.283639e+003,2.510748e+002
3.284603e+003,2.497742e+002
3.285567e+003,2.519999e+002
3.286531e+003,2.545854e+002
3.287496e+003,2.549857e+002
3.288460e+003,2.544516e+002
3.289424e+003,2.526835e+002
3.290388e+003,2.528802e+002
3.291353e+003,2.551107e+002
3.292317e+003,2.558570e+002
3.293281e+003,2.550114e+002
3.294245e+003,2.545692e+002
3.295209e+003,2.552281e+002
3.296174e+003,2.577142e+002
3.297138e+003,2.613718e+002
3.298102e+003,2.635261e+002
3.299066e+003,2.648293e+002
3.300031e+003,2.667341e+002
3.300995e+003,2.681623e+002
3.301959e+003,2.679504e+002
3.302923e+003,2.668423e+002
3.303887e+003,2.650515e+002
3.304852e+003,2.634662e+002
3.305816e+003,2.626008e+002
3.306780e+003,2.621509e+002
3.307744e+003,2.618179e+002
3.308709e+003,2.626220e+002
3.309673e+003,2.647534e+002
3.310637e+003,2.664719e+002
3.311601e+003,2.676987e+002
3.312566e+003,2.679794e+002
3.313530e+003,2.682409e+002
3.314494e+003,2.714667e+002
3.315458e+003,2.750991e+002
3.316423e+003,2.745234e+002
3.317387e+003,2.724731e+002
3.318351e+003,2.737999e+002
3.319315e+003,2.761755e+002
3.320280e+003,2.779927e+002
3.321244e+003,2.785534e+002
3.322208e+003,2.772640e+002
3.323172e+003,2.767288e+002
3.324136e+003,2.775593e+002
3.325101e+003,2.788225e+002
3.326065e+003,2.801868e+002
3.327029e+003,2.819291e+002
3.327993e+003,2.840586e+002
3.328958e+003,2.842339e+002
3.329922e+003,2.828880e+002
3.330886e+003,2.834303e+002
3.331850e+003,2.847316e+002
3.332814e+003,2.850034e+002
3.333779e+003,2.844531e+002
3.334743e+003,2.828928e+002
3.335707e+003,2.824915e+002
3.336671e+003,2.848671e+002
3.337636e+003,2.877283e+002
3.338600e+003,2.892506e+002
3.339564e+003,2.905858e+002
3.340528e+003,2.924294e+002
3.341493e+003,2.932838e+002
3.342457e+003,2.932180e+002
3.343421e+003,2.955491e+002
3.344385e+003,2.996902e+002
3.345350e+003,3.030362e+002
3.346314e+003,3.049429e+002
3.347278e+003,3.052228e+002
3.348242e+003,3.043315e+002
3.349207e+003,3.026510e+002
3.350171e+003,3.013280e+002
3.351135e+003,3.023377e+002
3.352099e+003,3.043322e+002
3.353063e+003,3.073640e+002
3.354028e+003,3.087815e+002
3.354992e+003,3.079112e+002
3.355956e+003,3.086534e+002
3.356920e+003,3.117844e+002
3.357885e+003,3.117875e+002
3.358849e+003,3.066943e+002
3.359813e+003,3.030190e+002
3.360777e+003,3.010446e+002
3.361741e+003,3.050356e+002
3.362706e+003,3.115565e+002
3.363670e+003,3.139814e+002
3.364634e+003,3.136387e+002
3.365598e+003,3.112498e+002
3.366563e+003,3.103871e+002
3.367527e+003,3.136090e+002
3.368491e+003,3.166089e+002
3.369455e+003,3.154120e+002
3.370420e+003,3.148538e+002
3.371384e+003,3.190260e+002
3.372348e+003,3.197448e+002
3.373312e+003,3.169404e+002
3.374277e+003,3.170085e+002
3.375241e+003,3.196618e+002
3.376205e+003,3.221534e+002
3.377169e+003,3.238088e+002
3.378134e+003,3.246248e+002
3.379098e+003,3.243480e+002
3.380062e+003,3.216467e+002
3.381026e+003,3.193334e+002
3.381990e+003,3.226224e+002
3.382955e+003,3.258167e+002
3.383919e+003,3.258178e+002
3.384883e+003,3.256200e+002
3.385847e+003,3.258405e+002
3.386812e+003,3.250886e+002
3.387776e+003,3.233132e+002
3.388740e+003,3.228037e+002
3.389704e+003,3.240641e+002
3.390668e+003,3.252346e+002
3.391633e+003,3.262628e+002
3.392597e+003,3.265021e+002
3.393561e+003,3.267509e+002
3.394525e+003,3.287456e+002
3.395490e+003,3.305641e+002
3.396454e+003,3.306291e+002
3.397418e+003,3.309801e+002
3.398382e+003,3.327473e+002
3.399347e+003,3.343488e+002
3.400311e+003,3.346989e+002
3.401275e+003,3.359257e+002
3.402239e+003,3.391765e+002
3.403204e+003,3.373280e+002
3.404168e+003,3.324751e+002
3.405132e+003,3.363453e+002
3.406096e+003,3.440416e+002
3.407061e+003,3.441961e+002
3.408025e+003,3.402704e+002
3.408989e+003,3.367939e+002
3.409953e+003,3.350678e+002
3.410917e+003,3.374539e+002
3.411882e+003,3.399555e+002
3.412846e+003,3.394056e+002
3.413810e+003,3.388130e+002
3.414774e+003,3.386301e+002
3.415739e+003,3.380738e+002
3.416703e+003,3.374843e+002
3.417667e+003,3.393489e+002
3.418631e+003,3.427534e+002
3.419595e+003,3.431073e+002
3.420560e+003,3.414892e+002
3.421524e+003,3.409188e+002
3.422488e+003,3.406959e+002
3.423452e+003,3.390778e+002
3.424417e+003,3.382827e+002
3.425381e+003,3.401625e+002
3.426345e+003,3.415944e+002
3.427309e+003,3.417825e+002
3.428274e+003,3.420165e+002
3.429238e+003,3.427327e+002
3.430202e+003,3.433564e+002
3.431166e+003,3.438055e+002
3.432131e+003,3.454688e+002
3.433095e+003,3.477528e+002
3.434059e+003,3.474413e+002
3.435023e+003,3.466878e+002
3.435988e+003,3.496218e+002
3.436952e+003,3.515314e+002
3.437916e+003,3.493007e+002
3.438880e+003,3.473542e+002
3.439844e+003,3.482935e+002
3.440809e+003,3.485577e+002
3.441773e+003,3.452754e+002
3.442737e+003,3.460127e+002
3.443701e+003,3.511305e+002
3.444666e+003,3.548139e+002
3.445630e+003,3.572762e+002
3.446594e+003,3.598802e+002
3.447558e+003,3.620720e+002
3.448522e+003,3.629139e+002
3.449487e+003,3.626958e+002
3.450451e+003,3.613991e+002
3.451415e+003,3.614174e+002
3.452379e+003,3.674443e+002
3.453344e+003,3.697149e+002
3.454308e+003,3.640090e+002
3.455272e+003,3.641812e+002
3.456236e+003,3.698291e+002
3.457201e+003,3.713443e+002
3.458165e+003,3.693849e+002
3.459129e+003,3.705303e+002
3.460093e+003,3.726987e+002
3.461058e+003,3.709124e+002
3.462022e+003,3.689257e+002
3.462986e+003,3.751281e+002
3.463950e+003,3.804735e+002
3.464915e+003,3.768735e+002
3.465879e+003,3.750890e+002
3.466843e+003,3.766898e+002
3.467807e+003,3.785527e+002
3.468771e+003,3.798018e+002
3.469736e+003,3.801169e+002
3.470700e+003,3.799971e+002
3.471664e+003,3.820059e+002
3.472628e+003,3.850779e+002
3.473593e+003,3.856765e+002
3.474557e+003,3.857570e+002
3.475521e+003,3.879214e+002
3.476485e+003,3.894106e+002
3.477449e+003,3.890835e+002
3.478414e+003,3.894899e+002
3.479378e+003,3.914620e+002
3.480342e+003,3.939568e+002
3.481306e+003,3.965587e+002
3.482271e+003,3.979113e+002
3.483235e+003,3.979373e+002
3.484199e+003,3.943088e+002
3.485163e+003,3.905927e+002
3.486128e+003,3.935484e+002
3.487092e+003,3.984888e+002
3.488056e+003,4.020343e+002
3.489020e+003,4.040560e+002
3.489985e+003,4.045441e+002
3.490949e+003,4.049335e+002
3.491913e+003,4.060234e+002
3.492877e+003,4.063012e+002
3.493842e+003,4.056125e+002
3.494806e+003,4.080408e+002
3.495770e+003,4.117530e+002
3.496734e+003,4.116148e+002
3.497698e+003,4.104449e+002
3.498663e+003,4.118767e+002
3.499627e+003,4.141355e+002
3.500591e+003,0.000000e+000
