9.974011e+001,4.295225e+002
1.007043e+002,4.317768e+002
1.016686e+002,4.346273e+002
1.026328e+002,4.378926e+002
1.035970e+002,4.399602e+002
1.045613e+002,4.415143e+002
1.055255e+002,4.422592e+002
1.064897e+002,4.414780e+002
1.074540e+002,4.385861e+002
1.084182e+002,4.341040e+002
1.093824e+002,4.257327e+002
1.103467e+002,4.144263e+002
1.113109e+002,4.054564e+002
1.122751e+002,4.071917e+002
1.132394e+002,4.115028e+002
1.142036e+002,4.149090e+002
1.151678e+002,4.153439e+002
1.161321e+002,4.135623e+002
1.170963e+002,4.122401e+002
1.180605e+002,4.109710e+002
1.190248e+002,4.095443e+002
1.199890e+002,4.078785e+002
1.209532e+002,4.066522e+002
1.219175e+002,4.046853e+002
1.228817e+002,4.010967e+002
1.238459e+002,3.969592e+002
1.248102e+002,3.944476e+002
1.257744e+002,3.955365e+002
1.267386e+002,3.961655e+002
1.277029e+002,3.956823e+002
1.286671e+002,3.940018e+002
1.296313e+002,3.916112e+002
1.305956e+002,3.883859e+002
1.315598e+002,3.852792e+002
1.325240e+002,3.827667e+002
1.334883e+002,3.811438e+002
1.344525e+002,3.803464e+002
1.354167e+002,3.801244e+002
1.363810e+002,3.799997e+002
1.373452e+002,3.793672e+002
1.383094e+002,3.777106e+002
1.392737e+002,3.748263e+002
1.402379e+002,3.727223e+002
1.412021e+002,3.715193e+002
1.421664e+002,3.707006e+002
1.431306e+002,3.695334e+002
1.440948e+002,3.677527e+002
1.450591e+002,3.665019e+002
1.460233e+002,3.656342e+002
1.469875e+002,3.650770e+002
1.479518e+002,3.647814e+002
1.489160e+002,3.651652e+002
1.498802e+002,3.652000e+002
1.508445e+002,3.648215e+002
1.518087e+002,3.641707e+002
1.527729e+002,3.636507e+002
1.537372e+002,3.634360e+002
1.547014e+002,3.627841e+002
1.556656e+002,3.612741e+002
1.566299e+002,3.587351e+002
1.575941e+002,3.553526e+002
1.585583e+002,3.520446e+002
1.595226e+002,3.485897e+002
1.604868e+002,3.455460e+002
1.614510e+002,3.433970e+002
1.624153e+002,3.421151e+002
1.633795e+002,3.408313e+002
1.643438e+002,3.396642e+002
1.653080e+002,3.389077e+002
1.662722e+002,3.389915e+002
1.672365e+002,3.412119e+002
1.682007e+002,3.427068e+002
1.691649e+002,3.419216e+002
1.701292e+002,3.393350e+002
1.710934e+002,3.363536e+002
1.720576e+002,3.354723e+002
1.730219e+002,3.357343e+002
1.739861e+002,3.362439e+002
1.749503e+002,3.365234e+002
1.759146e+002,3.362483e+002
1.768788e+002,3.340677e+002
1.778430e+002,3.304086e+002
1.788073e+002,3.272606e+002
1.797715e+002,3.257764e+002
1.807357e+002,3.264640e+002
1.817000e+002,3.274894e+002
1.826642e+002,3.285307e+002
1.836284e+002,3.288456e+002
1.845927e+002,3.276816e+002
1.855569e+002,3.241356e+002
1.865211e+002,3.200446e+002
1.874854e+002,3.166200e+002
1.884496e+002,3.143321e+002
1.894138e+002,3.137992e+002
1.903781e+002,3.162214e+002
1.913423e+002,3.203522e+002
1.923065e+002,3.223990e+002
1.932708e+002,3.218066e+002
1.942350e+002,3.191379e+002
1.951992e+002,3.169270e+002
1.961635e+002,3.160394e+002
1.971277e+002,3.150209e+002
1.980919e+002,3.134298e+002
1.990562e+002,3.113253e+002
2.000204e+002,3.100718e+002
2.009846e+002,3.100394e+002
2.019489e+002,3.103774e+002
2.029131e+002,3.112635e+002
2.038773e+002,3.127513e+002
2.048416e+002,3.137181e+002
2.058058e+002,3.124985e+002
2.067700e+002,3.106180e+002
2.077343e+002,3.091795e+002
2.086985e+002,3.089820e+002
2.096627e+002,3.095899e+002
2.106270e+002,3.093041e+002
2.115912e+002,3.083099e+002
2.125554e+002,3.070027e+002
2.135197e+002,3.057750e+002
2.144839e+002,3.043738e+002
2.154481e+002,3.032397e+002
2.164124e+002,3.027955e+002
2.173766e+002,3.027994e+002
2.183408e+002,3.027613e+002
2.193051e+002,3.022883e+002
2.202693e+002,3.019749e+002
2.212335e+002,3.020181e+002
2.221978e+002,3.021568e+002
2.231620e+002,3.019005e+002
2.241262e+002,3.003374e+002
2.250904e+002,2.993314e+002
2.260547e+002,3.001716e+002
2.270189e+002,3.026132e+002
2.279831e+002,3.055008e+002
2.289474e+002,3.060621e+002
2.299116e+002,3.049911e+002
2.308758e+002,3.032576e+002
2.318401e+002,3.009636e+002
2.328043e+002,2.980791e+002
2.337685e+002,2.976141e+002
2.347328e+002,3.007400e+002
2.356970e+002,3.032870e+002
2.366612e+002,3.031636e+002
2.376255e+002,2.996655e+002
2.385897e+002,2.977487e+002
2.395539e+002,3.002175e+002
2.405182e+002,3.036591e+002
2.414824e+002,3.058928e+002
2.424466e+002,3.054988e+002
2.434109e+002,3.042404e+002
2.443751e+002,3.044589e+002
2.453393e+002,3.053708e+002
2.463036e+002,3.060819e+002
2.472678e+002,3.056918e+002
2.482320e+002,3.043456e+002
2.491963e+002,3.038026e+002
2.501605e+002,3.039629e+002
2.511247e+002,3.045160e+002
2.520890e+002,3.050355e+002
2.530532e+002,3.053047e+002
2.540174e+002,3.057921e+002
2.549817e+002,3.069884e+002
2.559459e+002,3.086758e+002
2.569102e+002,3.102500e+002
2.578744e+002,3.104972e+002
2.588386e+002,3.102932e+002
2.598029e+002,3.108574e+002
2.607671e+002,3.120308e+002
2.617313e+002,3.129901e+002
2.626956e+002,3.118065e+002
2.636598e+002,3.099775e+002
2.646240e+002,3.091378e+002
2.655883e+002,3.094493e+002
2.665525e+002,3.104792e+002
2.675167e+002,3.112348e+002
2.684810e+002,3.119857e+002
2.694452e+002,3.130178e+002
2.704094e+002,3.147734e+002
2.713737e+002,3.173098e+002
2.723379e+002,3.186309e+002
2.733021e+002,3.166173e+002
2.742664e+002,3.148188e+002
2.752306e+002,3.148162e+002
2.761948e+002,3.170968e+002
2.771591e+002,3.196329e+002
2.781233e+002,3.215238e+002
2.790875e+002,3.229313e+002
2.800518e+002,3.235183e+002
2.810160e+002,3.231088e+002
2.819802e+002,3.220514e+002
2.829445e+002,3.218022e+002
2.839087e+002,3.221520e+002
2.848729e+002,3.226389e+002
2.858372e+002,3.229079e+002
2.868014e+002,3.228966e+002
2.877656e+002,3.234192e+002
2.887299e+002,3.243824e+002
2.896941e+002,3.252104e+002
2.906583e+002,3.255941e+002
2.916226e+002,3.256842e+002
2.925868e+002,3.257835e+002
2.935510e+002,3.258689e+002
2.945153e+002,3.260065e+002
2.954795e+002,3.261247e+002
2.964437e+002,3.259937e+002
2.974080e+002,3.257986e+002
2.983722e+002,3.263464e+002
2.993364e+002,3.274171e+002
3.003007e+002,3.284576e+002
3.012649e+002,3.286785e+002
3.022291e+002,3.279456e+002
3.031934e+002,3.280547e+002
3.041576e+002,3.292391e+002
3.051218e+002,3.310493e+002
3.060861e+002,3.326530e+002
3.070503e+002,3.335374e+002
3.080145e+002,3.338314e+002
3.089788e+002,3.335509e+002
3.099430e+002,3.332736e+002
3.109072e+002,3.337792e+002
3.118715e+002,3.358917e+002
3.128357e+002,3.386031e+002
3.137999e+002,3.418708e+002
3.147642e+002,3.446818e+002
3.157284e+002,3.455781e+002
3.166926e+002,3.420952e+002
3.176569e+002,3.374020e+002
3.186211e+002,3.360978e+002
3.195853e+002,3.382832e+002
3.205496e+002,3.422851e+002
3.215138e+002,3.441896e+002
3.224780e+002,3.428543e+002
3.234423e+002,3.415252e+002
3.244065e+002,3.402391e+002
3.253707e+002,3.391925e+002
3.263350e+002,3.390055e+002
3.272992e+002,3.407698e+002
3.282634e+002,3.430710e+002
3.292277e+002,3.462622e+002
3.301919e+002,3.498553e+002
3.311561e+002,3.526503e+002
3.321204e+002,3.527842e+002
3.330846e+002,3.520085e+002
3.340488e+002,3.508714e+002
3.350131e+002,3.497445e+002
3.359773e+002,3.490791e+002
3.369415e+002,3.505624e+002
3.379058e+002,3.537043e+002
3.388700e+002,3.553458e+002
3.398342e+002,3.543986e+002
3.407985e+002,3.515372e+002
3.417627e+002,3.513167e+002
3.427269e+002,3.566337e+002
3.436912e+002,3.603002e+002
3.446554e+002,3.603096e+002
3.456196e+002,3.573322e+002
3.465839e+002,3.555504e+002
3.475481e+002,3.583171e+002
3.485123e+002,3.613588e+002
3.494765e+002,3.630563e+002
3.504408e+002,3.630632e+002
3.514050e+002,3.622762e+002
3.523692e+002,3.623122e+002
3.533335e+002,3.627639e+002
3.542977e+002,3.631428e+002
3.552619e+002,3.633781e+002
3.562262e+002,3.636393e+002
3.571904e+002,3.642243e+002
3.581546e+002,3.648269e+002
3.591189e+002,3.654801e+002
3.600831e+002,3.661788e+002
3.610473e+002,3.668439e+002
3.620116e+002,3.671916e+002
3.629758e+002,3.676274e+002
3.639400e+002,3.678824e+002
3.649043e+002,3.677326e+002
3.658685e+002,3.672001e+002
3.668327e+002,3.666469e+002
3.677970e+002,3.661003e+002
3.687612e+002,3.661072e+002
3.697254e+002,3.672501e+002
3.706897e+002,3.694485e+002
3.716539e+002,3.719856e+002
3.726181e+002,3.729270e+002
3.735824e+002,3.724324e+002
3.745466e+002,3.718549e+002
3.755108e+002,3.717243e+002
3.764751e+002,3.721717e+002
3.774393e+002,3.728898e+002
3.784035e+002,3.739512e+002
3.793678e+002,3.747809e+002
3.803320e+002,3.753160e+002
3.812962e+002,3.756805e+002
3.822605e+002,3.761826e+002
3.832247e+002,3.770177e+002
3.841889e+002,3.777671e+002
3.851532e+002,3.781979e+002
3.861174e+002,3.782886e+002
3.870816e+002,3.781920e+002
3.880459e+002,3.779568e+002
3.890101e+002,3.778049e+002
3.899743e+002,3.782211e+002
3.909386e+002,3.793430e+002
3.919028e+002,3.809596e+002
3.928670e+002,3.820628e+002
3.938313e+002,3.822451e+002
3.947955e+002,3.815891e+002
3.957597e+002,3.793380e+002
3.967240e+002,3.761349e+002
3.976882e+002,3.747966e+002
3.986524e+002,3.780803e+002
3.996167e+002,3.813031e+002
4.005809e+002,3.837548e+002
4.015451e+002,3.851583e+002
4.025094e+002,3.855125e+002
4.034736e+002,3.843138e+002
4.044378e+002,3.834011e+002
4.054021e+002,3.839360e+002
4.063663e+002,3.855499e+002
4.073305e+002,3.871445e+002
4.082948e+002,3.868498e+002
4.092590e+002,3.848779e+002
4.102232e+002,3.842502e+002
4.111875e+002,3.854417e+002
4.121517e+002,3.875465e+002
4.131159e+002,3.885045e+002
4.140802e+002,3.881290e+002
4.150444e+002,3.880231e+002
4.160086e+002,3.873860e+002
4.169729e+002,3.869168e+002
4.179371e+002,3.879210e+002
4.189013e+002,3.917410e+002
4.198656e+002,3.942114e+002
4.208298e+002,3.937437e+002
4.217940e+002,3.915685e+002
4.227583e+002,3.893092e+002
4.237225e+002,3.883682e+002
4.246867e+002,3.894299e+002
4.256510e+002,3.923376e+002
4.266152e+002,3.964957e+002
4.275794e+002,4.003148e+002
4.285437e+002,4.019461e+002
4.295079e+002,4.005391e+002
4.304721e+002,3.997879e+002
4.314364e+002,4.001754e+002
4.324006e+002,4.013350e+002
4.333648e+002,4.028672e+002
4.343291e+002,4.047007e+002
4.352933e+002,4.056730e+002
4.362575e+002,4.049869e+002
4.372218e+002,4.041951e+002
4.381860e+002,4.049318e+002
4.391502e+002,4.082221e+002
4.401145e+002,4.115659e+002
4.410787e+002,4.116391e+002
4.420429e+002,4.102387e+002
4.430072e+002,4.090348e+002
4.439714e+002,4.090323e+002
4.449356e+002,4.098972e+002
4.458999e+002,4.114221e+002
4.468641e+002,4.139948e+002
4.478283e+002,4.163313e+002
4.487926e+002,4.181227e+002
4.497568e+002,4.196790e+002
4.507210e+002,4.202970e+002
4.516853e+002,4.179104e+002
4.526495e+002,4.152350e+002
4.536137e+002,4.133534e+002
4.545780e+002,4.125828e+002
4.555422e+002,4.124867e+002
4.565064e+002,4.144385e+002
4.574707e+002,4.162899e+002
4.584349e+002,4.156776e+002
4.593991e+002,4.124036e+002
4.603634e+002,4.082833e+002
4.613276e+002,4.082023e+002
4.622918e+002,4.117211e+002
4.632561e+002,4.144103e+002
4.642203e+002,4.153774e+002
4.651845e+002,4.149655e+002
4.661488e+002,4.143111e+002
4.671130e+002,4.122692e+002
4.680772e+002,4.107048e+002
4.690415e+002,4.102340e+002
4.700057e+002,4.105920e+002
4.709699e+002,4.111312e+002
4.719342e+002,4.118033e+002
4.728984e+002,4.118742e+002
4.738626e+002,4.106256e+002
4.748269e+002,4.086207e+002
4.757911e+002,4.067415e+002
4.767553e+002,4.058914e+002
4.777196e+002,4.060946e+002
4.786838e+002,4.064904e+002
4.796480e+002,4.066893e+002
4.806123e+002,4.060970e+002
4.815765e+002,4.041317e+002
4.825407e+002,4.003790e+002
4.835050e+002,3.994214e+002
4.844692e+002,4.032831e+002
4.854334e+002,4.075544e+002
4.863977e+002,4.087650e+002
4.873619e+002,4.056374e+002
4.883261e+002,4.020643e+002
4.892904e+002,4.001296e+002
4.902546e+002,3.992986e+002
4.912188e+002,3.992256e+002
4.921831e+002,3.995071e+002
4.931473e+002,3.996421e+002
4.941115e+002,3.987681e+002
4.950758e+002,3.976350e+002
4.960400e+002,3.972684e+002
4.970042e+002,3.980918e+002
4.979685e+002,3.997199e+002
4.989327e+002,4.000048e+002
4.998969e+002,3.972748e+002
5.008612e+002,3.954898e+002
5.018254e+002,3.961348e+002
5.027896e+002,3.982031e+002
5.037539e+002,3.985642e+002
5.047181e+002,3.955489e+002
5.056823e+002,3.933162e+002
5.066466e+002,3.924092e+002
5.076108e+002,3.927850e+002
5.085750e+002,3.944252e+002
5.095393e+002,3.977706e+002
5.105035e+002,4.006396e+002
5.114677e+002,4.007744e+002
5.124320e+002,3.994070e+002
5.133962e+002,3.984377e+002
5.143605e+002,3.995239e+002
5.153247e+002,4.024479e+002
5.162889e+002,4.052004e+002
5.172532e+002,4.080394e+002
5.182174e+002,4.111138e+002
5.191816e+002,4.145443e+002
5.201459e+002,4.183093e+002
5.211101e+002,4.215790e+002
5.220743e+002,4.241022e+002
5.230386e+002,4.259595e+002
5.240028e+002,4.271321e+002
5.249670e+002,4.281301e+002
5.259313e+002,4.303051e+002
5.268955e+002,4.347396e+002
5.278597e+002,4.395363e+002
5.288240e+002,4.438526e+002
5.297882e+002,4.476350e+002
5.307524e+002,4.513044e+002
5.317167e+002,4.556727e+002
5.326809e+002,4.614469e+002
5.336451e+002,4.679758e+002
5.346094e+002,4.748990e+002
5.355736e+002,4.813718e+002
5.365378e+002,4.863502e+002
5.375021e+002,4.895379e+002
5.384663e+002,4.936064e+002
5.394305e+002,4.989580e+002
5.403948e+002,5.048248e+002
5.413590e+002,5.104805e+002
5.423232e+002,5.154366e+002
5.432875e+002,5.193710e+002
5.442517e+002,5.230861e+002
5.452159e+002,5.270387e+002
5.461802e+002,5.310075e+002
5.471444e+002,5.344958e+002
5.481086e+002,5.368710e+002
5.490729e+002,5.376117e+002
5.500371e+002,5.378091e+002
5.510013e+002,5.387180e+002
5.519656e+002,5.411406e+002
5.529298e+002,5.447341e+002
5.538940e+002,5.470580e+002
5.548583e+002,5.453815e+002
5.558225e+002,5.435847e+002
5.567867e+002,5.423950e+002
5.577510e+002,5.418079e+002
5.587152e+002,5.417881e+002
5.596794e+002,5.436516e+002
5.606437e+002,5.445417e+002
5.616079e+002,5.410734e+002
5.625721e+002,5.354323e+002
5.635364e+002,5.309744e+002
5.645006e+002,5.305493e+002
5.654648e+002,5.327575e+002
5.664291e+002,5.321090e+002
5.673933e+002,5.297587e+002
5.683575e+002,5.269507e+002
5.693218e+002,5.237976e+002
5.702860e+002,5.194306e+002
5.712502e+002,5.145667e+002
5.722145e+002,5.087692e+002
5.731787e+002,5.033469e+002
5.741429e+002,4.992325e+002
5.751072e+002,4.966569e+002
5.760714e+002,4.951855e+002
5.770356e+002,4.958405e+002
5.779999e+002,4.962276e+002
5.789641e+002,4.942498e+002
5.799283e+002,4.901459e+002
5.808926e+002,4.850226e+002
5.818568e+002,4.800743e+002
5.828210e+002,4.755128e+002
5.837853e+002,4.723723e+002
5.847495e+002,4.709318e+002
5.857137e+002,4.700290e+002
5.866780e+002,4.684155e+002
5.876422e+002,4.657797e+002
5.886064e+002,4.634443e+002
5.895707e+002,4.619428e+002
5.905349e+002,4.603419e+002
5.914991e+002,4.578693e+002
5.924634e+002,4.543559e+002
5.934276e+002,4.506734e+002
5.943918e+002,4.475117e+002
5.953560e+002,4.448233e+002
5.963203e+002,4.428110e+002
5.972845e+002,4.410810e+002
5.982487e+002,4.388517e+002
5.992130e+002,4.352491e+002
6.001772e+002,4.310414e+002
6.011414e+002,4.278213e+002
6.021057e+002,4.249506e+002
6.030699e+002,4.217407e+002
6.040341e+002,4.178552e+002
6.049984e+002,4.137586e+002
6.059626e+002,4.089867e+002
6.069268e+002,4.036487e+002
6.078911e+002,3.989569e+002
6.088553e+002,3.953434e+002
6.098195e+002,3.924633e+002
6.107838e+002,3.892719e+002
6.117480e+002,3.849529e+002
6.127122e+002,3.811428e+002
6.136765e+002,3.789784e+002
6.146407e+002,3.779559e+002
6.156049e+002,3.764462e+002
6.165692e+002,3.723010e+002
6.175334e+002,3.659281e+002
6.184976e+002,3.607485e+002
6.194619e+002,3.572268e+002
6.204261e+002,3.542834e+002
6.213903e+002,3.500657e+002
6.223546e+002,3.427981e+002
6.233188e+002,3.384550e+002
6.242830e+002,3.385365e+002
6.252473e+002,3.390835e+002
6.262115e+002,3.380634e+002
6.271757e+002,3.352422e+002
6.281400e+002,3.318559e+002
6.291042e+002,3.281418e+002
6.300684e+002,3.246530e+002
6.310327e+002,3.217081e+002
6.319969e+002,3.193201e+002
6.329611e+002,3.173525e+002
6.339254e+002,3.156680e+002
6.348896e+002,3.137849e+002
6.358538e+002,3.104828e+002
6.368181e+002,3.057043e+002
6.377823e+002,3.006498e+002
6.387465e+002,2.965859e+002
6.397108e+002,2.938351e+002
6.406750e+002,2.912611e+002
6.416392e+002,2.885856e+002
6.426035e+002,2.855162e+002
6.435677e+002,2.818311e+002
6.445319e+002,2.777416e+002
6.454962e+002,2.740912e+002
6.464604e+002,2.720024e+002
6.474246e+002,2.703110e+002
6.483889e+002,2.676389e+002
6.493531e+002,2.641797e+002
6.503173e+002,2.613211e+002
6.512816e+002,2.611075e+002
6.522458e+002,2.634339e+002
6.532100e+002,2.621127e+002
6.541743e+002,2.565735e+002
6.551385e+002,2.503246e+002
6.561027e+002,2.459928e+002
6.570670e+002,2.437037e+002
6.580312e+002,2.414975e+002
6.589954e+002,2.389371e+002
6.599597e+002,2.361709e+002
6.609239e+002,2.336018e+002
6.618881e+002,2.313931e+002
6.628524e+002,2.294331e+002
6.638166e+002,2.276307e+002
6.647808e+002,2.258482e+002
6.657451e+002,2.235967e+002
6.667093e+002,2.209312e+002
6.676735e+002,2.183246e+002
6.686378e+002,2.163263e+002
6.696020e+002,2.148955e+002
6.705662e+002,2.121481e+002
6.715305e+002,2.074654e+002
6.724947e+002,2.034055e+002
6.734589e+002,2.021035e+002
6.744232e+002,2.034839e+002
6.753874e+002,2.036834e+002
6.763516e+002,2.007220e+002
6.773159e+002,1.976246e+002
6.782801e+002,1.945188e+002
6.792443e+002,1.914664e+002
6.802086e+002,1.885429e+002
6.811728e+002,1.858715e+002
6.821370e+002,1.833584e+002
6.831013e+002,1.814886e+002
6.840655e+002,1.800023e+002
6.850297e+002,1.778390e+002
6.859940e+002,1.742434e+002
6.869582e+002,1.695513e+002
6.879224e+002,1.667424e+002
6.888867e+002,1.664679e+002
6.898509e+002,1.663094e+002
6.908151e+002,1.667332e+002
6.917794e+002,1.671958e+002
6.927436e+002,1.660824e+002
6.937078e+002,1.619344e+002
6.946721e+002,1.579812e+002
6.956363e+002,1.552404e+002
6.966005e+002,1.533219e+002
6.975648e+002,1.518152e+002
6.985290e+002,1.503614e+002
6.994932e+002,1.485878e+002
7.004575e+002,1.459008e+002
7.014217e+002,1.429606e+002
7.023859e+002,1.407234e+002
7.033502e+002,1.395675e+002
7.043144e+002,1.392402e+002
7.052786e+002,1.390045e+002
7.062429e+002,1.389136e+002
7.072071e+002,1.378453e+002
7.081713e+002,1.354502e+002
7.091356e+002,1.328650e+002
7.100998e+002,1.309721e+002
7.110640e+002,1.298079e+002
7.120283e+002,1.285054e+002
7.129925e+002,1.265556e+002
7.139567e+002,1.244663e+002
7.149210e+002,1.223521e+002
7.158852e+002,1.203607e+002
7.168494e+002,1.187156e+002
7.178137e+002,1.177643e+002
7.187779e+002,1.175851e+002
7.197421e+002,1.175513e+002
7.207064e+002,1.175604e+002
7.216706e+002,1.173360e+002
7.226348e+002,1.166761e+002
7.235991e+002,1.156332e+002
7.245633e+002,1.148145e+002
7.255275e+002,1.135895e+002
7.264918e+002,1.125302e+002
7.274560e+002,1.120277e+002
7.284202e+002,1.121463e+002
7.293845e+002,1.127898e+002
7.303487e+002,1.142412e+002
7.313129e+002,1.153002e+002
7.322772e+002,1.149616e+002
7.332414e+002,1.137245e+002
7.342056e+002,1.123212e+002
7.351699e+002,1.112923e+002
7.361341e+002,1.106910e+002
7.370983e+002,1.103428e+002
7.380626e+002,1.098411e+002
7.390268e+002,1.094156e+002
7.399910e+002,1.092495e+002
7.409553e+002,1.095792e+002
7.419195e+002,1.107755e+002
7.428837e+002,1.136380e+002
7.438480e+002,1.148146e+002
7.448122e+002,1.129839e+002
7.457764e+002,1.107251e+002
7.467407e+002,1.099951e+002
7.477049e+002,1.113715e+002
7.486691e+002,1.139089e+002
7.496334e+002,1.169770e+002
7.505976e+002,1.195823e+002
7.515618e+002,1.206886e+002
7.525261e+002,1.203269e+002
7.534903e+002,1.194794e+002
7.544545e+002,1.195725e+002
7.554188e+002,1.213061e+002
7.563830e+002,1.222528e+002
7.573472e+002,1.205603e+002
7.583115e+002,1.191270e+002
7.592757e+002,1.202922e+002
7.602399e+002,1.240781e+002
7.612042e+002,1.274736e+002
7.621684e+002,1.281107e+002
7.631326e+002,1.285256e+002
7.640969e+002,1.300352e+002
7.650611e+002,1.321691e+002
7.660253e+002,1.341397e+002
7.669896e+002,1.355087e+002
7.679538e+002,1.366386e+002
7.689180e+002,1.373387e+002
7.698823e+002,1.371973e+002
7.708465e+002,1.373797e+002
7.718107e+002,1.389879e+002
7.727750e+002,1.417008e+002
7.737392e+002,1.432348e+002
7.747034e+002,1.425698e+002
7.756677e+002,1.421577e+002
7.766319e+002,1.420899e+002
7.775961e+002,1.420067e+002
7.785604e+002,1.415146e+002
7.795246e+002,1.405234e+002
7.804888e+002,1.396444e+002
7.814531e+002,1.397232e+002
7.824173e+002,1.399681e+002
7.833815e+002,1.397132e+002
7.843458e+002,1.391414e+002
7.853100e+002,1.390387e+002
7.862742e+002,1.402871e+002
7.872385e+002,1.426686e+002
7.882027e+002,1.434969e+002
7.891669e+002,1.424296e+002
7.901312e+002,1.407178e+002
7.910954e+002,1.393176e+002
7.920596e+002,1.384499e+002
7.930239e+002,1.375117e+002
7.939881e+002,1.352800e+002
7.949523e+002,1.339656e+002
7.959166e+002,1.350642e+002
7.968808e+002,1.369014e+002
7.978450e+002,1.371547e+002
7.988093e+002,1.346776e+002
7.997735e+002,1.313480e+002
8.007377e+002,1.309816e+002
8.017020e+002,1.321183e+002
8.026662e+002,1.322922e+002
8.036304e+002,1.307195e+002
8.045947e+002,1.282883e+002
8.055589e+002,1.268291e+002
8.065231e+002,1.270083e+002
8.074874e+002,1.264422e+002
8.084516e+002,1.251659e+002
8.094158e+002,1.233102e+002
8.103801e+002,1.210069e+002
8.113443e+002,1.185367e+002
8.123085e+002,1.163199e+002
8.132728e+002,1.139994e+002
8.142370e+002,1.117357e+002
8.152012e+002,1.093697e+002
8.161655e+002,1.069726e+002
8.171297e+002,1.051394e+002
8.180939e+002,1.045228e+002
8.190582e+002,1.051988e+002
8.200224e+002,1.060082e+002
8.209866e+002,1.069241e+002
8.219509e+002,1.061626e+002
8.229151e+002,1.017529e+002
8.238793e+002,9.543663e+001
8.248436e+002,9.139162e+001
8.258078e+002,9.076071e+001
8.267720e+002,9.021652e+001
8.277363e+002,8.922781e+001
8.287005e+002,8.774066e+001
8.296647e+002,8.553633e+001
8.306290e+002,8.292920e+001
8.315932e+002,8.088292e+001
8.325574e+002,8.041882e+001
8.335217e+002,8.085796e+001
8.344859e+002,8.115186e+001
8.354501e+002,8.103607e+001
8.364144e+002,7.984055e+001
8.373786e+002,7.691275e+001
8.383428e+002,7.248909e+001
8.393071e+002,6.992543e+001
8.402713e+002,7.141779e+001
8.412355e+002,7.195401e+001
8.421998e+002,7.014912e+001
8.431640e+002,6.718565e+001
8.441282e+002,6.467438e+001
8.450925e+002,6.293173e+001
8.460567e+002,6.208665e+001
8.470209e+002,6.273172e+001
8.479852e+002,6.379994e+001
8.489494e+002,6.474565e+001
8.499136e+002,6.538637e+001
8.508779e+002,6.561440e+001
8.518421e+002,6.517613e+001
8.528063e+002,6.403851e+001
8.537706e+002,6.340767e+001
8.547348e+002,6.334662e+001
8.556990e+002,6.361450e+001
8.566633e+002,6.444411e+001
8.576275e+002,6.556003e+001
8.585917e+002,6.521832e+001
8.595560e+002,6.172868e+001
8.605202e+002,5.918915e+001
8.614844e+002,5.912001e+001
8.624487e+002,6.025726e+001
8.634129e+002,6.116965e+001
8.643771e+002,6.115141e+001
8.653414e+002,6.046561e+001
8.663056e+002,5.970558e+001
8.672698e+002,5.930623e+001
8.682341e+002,5.938411e+001
8.691983e+002,5.972505e+001
8.701625e+002,5.980724e+001
8.711268e+002,5.903975e+001
8.720910e+002,5.714833e+001
8.730552e+002,5.521933e+001
8.740195e+002,5.324420e+001
8.749837e+002,5.277058e+001
8.759479e+002,5.474440e+001
8.769122e+002,5.794063e+001
8.778764e+002,6.033635e+001
8.788406e+002,6.115553e+001
8.798049e+002,6.068864e+001
8.807691e+002,5.904144e+001
8.817333e+002,5.721823e+001
8.826976e+002,5.599535e+001
8.836618e+002,5.559738e+001
8.846260e+002,5.587157e+001
8.855903e+002,5.662149e+001
8.865545e+002,5.784456e+001
8.875187e+002,5.882172e+001
8.884830e+002,6.001451e+001
8.894472e+002,6.056732e+001
8.904114e+002,5.949393e+001
8.913757e+002,5.721997e+001
8.923399e+002,5.606860e+001
8.933041e+002,5.708281e+001
8.942684e+002,5.794478e+001
8.952326e+002,5.783191e+001
8.961968e+002,5.731830e+001
8.971611e+002,5.683727e+001
8.981253e+002,5.674648e+001
8.990895e+002,5.760464e+001
9.000538e+002,6.059535e+001
9.010180e+002,6.507285e+001
9.019822e+002,6.755090e+001
9.029465e+002,6.751929e+001
9.039107e+002,6.693005e+001
9.048749e+002,6.789359e+001
9.058392e+002,7.054272e+001
9.068034e+002,7.151724e+001
9.077676e+002,6.849210e+001
9.087319e+002,6.638715e+001
9.096961e+002,6.638997e+001
9.106603e+002,6.796187e+001
9.116246e+002,7.038513e+001
9.125888e+002,7.327448e+001
9.135530e+002,7.608955e+001
9.145173e+002,7.799019e+001
9.154815e+002,7.936737e+001
9.164457e+002,8.117294e+001
9.174100e+002,8.370872e+001
9.183742e+002,8.631648e+001
9.193384e+002,8.797685e+001
9.203027e+002,8.845772e+001
9.212669e+002,9.003073e+001
9.222311e+002,9.298262e+001
9.231954e+002,9.534814e+001
9.241596e+002,9.670976e+001
9.251238e+002,9.781010e+001
9.260881e+002,9.976262e+001
9.270523e+002,1.030092e+002
9.280165e+002,1.059004e+002
9.289808e+002,1.064095e+002
9.299450e+002,1.065997e+002
9.309092e+002,1.083308e+002
9.318735e+002,1.116100e+002
9.328377e+002,1.151433e+002
9.338019e+002,1.175404e+002
9.347662e+002,1.187816e+002
9.357304e+002,1.195196e+002
9.366946e+002,1.196268e+002
9.376589e+002,1.205402e+002
9.386231e+002,1.228408e+002
9.395873e+002,1.258105e+002
9.405516e+002,1.282132e+002
9.415158e+002,1.298794e+002
9.424800e+002,1.317308e+002
9.434443e+002,1.351577e+002
9.444085e+002,1.381747e+002
9.453727e+002,1.387444e+002
9.463370e+002,1.372491e+002
9.473012e+002,1.359000e+002
9.482654e+002,1.367533e+002
9.492297e+002,1.390091e+002
9.501939e+002,1.398535e+002
9.511581e+002,1.396962e+002
9.521224e+002,1.403152e+002
9.530866e+002,1.429422e+002
9.540508e+002,1.464323e+002
9.550151e+002,1.479931e+002
9.559793e+002,1.466438e+002
9.569435e+002,1.449024e+002
9.579078e+002,1.433727e+002
9.588720e+002,1.427627e+002
9.598362e+002,1.437514e+002
9.608005e+002,1.457231e+002
9.617647e+002,1.471557e+002
9.627289e+002,1.468578e+002
9.636932e+002,1.457859e+002
9.646574e+002,1.459698e+002
9.656216e+002,1.469114e+002
9.665859e+002,1.477169e+002
9.675501e+002,1.482600e+002
9.685143e+002,1.487710e+002
9.694786e+002,1.492958e+002
9.704428e+002,1.493898e+002
9.714070e+002,1.510818e+002
9.723713e+002,1.542264e+002
9.733355e+002,1.576304e+002
9.742997e+002,1.613837e+002
9.752640e+002,1.655555e+002
9.762282e+002,1.700434e+002
9.771924e+002,1.746357e+002
9.781567e+002,1.785484e+002
9.791209e+002,1.807640e+002
9.800851e+002,1.821190e+002
9.810494e+002,1.836326e+002
9.820136e+002,1.857201e+002
9.829778e+002,1.883392e+002
9.839421e+002,1.912857e+002
9.849063e+002,1.943938e+002
9.858705e+002,1.960236e+002
9.868348e+002,1.958950e+002
9.877990e+002,1.963163e+002
9.887632e+002,1.981751e+002
9.897275e+002,2.006608e+002
9.906917e+002,2.023758e+002
9.916559e+002,2.025937e+002
9.926202e+002,2.015711e+002
9.935844e+002,1.996409e+002
9.945486e+002,1.976833e+002
9.955129e+002,1.961443e+002
9.964771e+002,1.952476e+002
9.974413e+002,1.951460e+002
9.984056e+002,1.958495e+002
9.993698e+002,1.970544e+002
1.000334e+003,1.978013e+002
1.001298e+003,1.981006e+002
1.002263e+003,1.983890e+002
1.003227e+003,1.989660e+002
1.004191e+003,1.993263e+002
1.005155e+003,1.982157e+002
1.006119e+003,1.953321e+002
1.007084e+003,1.942094e+002
1.008048e+003,1.990632e+002
1.009012e+003,2.045945e+002
1.009976e+003,2.071631e+002
1.010941e+003,2.075728e+002
1.011905e+003,2.081838e+002
1.012869e+003,2.103744e+002
1.013833e+003,2.131447e+002
1.014798e+003,2.140072e+002
1.015762e+003,2.125930e+002
1.016726e+003,2.136975e+002
1.017690e+003,2.190486e+002
1.018654e+003,2.251024e+002
1.019619e+003,2.291887e+002
1.020583e+003,2.314340e+002
1.021547e+003,2.334932e+002
1.022511e+003,2.350069e+002
1.023476e+003,2.373080e+002
1.024440e+003,2.419792e+002
1.025404e+003,2.475302e+002
1.026368e+003,2.525561e+002
1.027333e+003,2.565590e+002
1.028297e+003,2.598645e+002
1.029261e+003,2.627083e+002
1.030225e+003,2.648538e+002
1.031190e+003,2.665920e+002
1.032154e+003,2.682341e+002
1.033118e+003,2.710306e+002
1.034082e+003,2.757361e+002
1.035047e+003,2.814698e+002
1.036011e+003,2.866543e+002
1.036975e+003,2.911778e+002
1.037939e+003,2.945882e+002
1.038903e+003,2.955417e+002
1.039868e+003,2.975817e+002
1.040832e+003,3.036839e+002
1.041796e+003,3.120266e+002
1.042760e+003,3.181673e+002
1.043725e+003,3.193296e+002
1.044689e+003,3.179016e+002
1.045653e+003,3.199888e+002
1.046617e+003,3.254219e+002
1.047582e+003,3.302706e+002
1.048546e+003,3.344075e+002
1.049510e+003,3.385768e+002
1.050474e+003,3.429868e+002
1.051438e+003,3.473625e+002
1.052403e+003,3.521518e+002
1.053367e+003,3.577935e+002
1.054331e+003,3.630275e+002
1.055295e+003,3.669820e+002
1.056260e+003,3.710530e+002
1.057224e+003,3.774557e+002
1.058188e+003,3.861563e+002
1.059152e+003,3.940636e+002
1.060117e+003,3.974673e+002
1.061081e+003,3.975613e+002
1.062045e+003,4.002716e+002
1.063009e+003,4.051542e+002
1.063974e+003,4.105858e+002
1.064938e+003,4.167659e+002
1.065902e+003,4.235932e+002
1.066866e+003,4.301760e+002
1.067830e+003,4.361905e+002
1.068795e+003,4.412614e+002
1.069759e+003,4.451510e+002
1.070723e+003,4.488655e+002
1.071687e+003,4.529417e+002
1.072652e+003,4.575929e+002
1.073616e+003,4.626675e+002
1.074580e+003,4.677808e+002
1.075544e+003,4.725302e+002
1.076509e+003,4.765972e+002
1.077473e+003,4.804338e+002
1.078437e+003,4.859516e+002
1.079401e+003,4.940900e+002
1.080365e+003,5.015300e+002
1.081330e+003,5.046290e+002
1.082294e+003,5.041246e+002
1.083258e+003,5.058761e+002
1.084222e+003,5.120026e+002
1.085187e+003,5.172114e+002
1.086151e+003,5.201577e+002
1.087115e+003,5.221642e+002
1.088079e+003,5.236666e+002
1.089043e+003,5.249800e+002
1.090008e+003,5.267911e+002
1.090972e+003,5.297705e+002
1.091936e+003,5.328414e+002
1.092900e+003,5.324075e+002
1.093865e+003,5.290037e+002
1.094829e+003,5.264768e+002
1.095793e+003,5.260607e+002
1.096757e+003,5.267330e+002
1.097722e+003,5.271810e+002
1.098686e+003,5.270275e+002
1.099650e+003,5.263080e+002
1.100614e+003,5.256794e+002
1.101578e+003,5.250648e+002
1.102543e+003,5.249139e+002
1.103507e+003,5.240778e+002
1.104471e+003,5.209988e+002
1.105435e+003,5.153126e+002
1.106400e+003,5.080262e+002
1.107364e+003,5.004282e+002
1.108328e+003,4.932144e+002
1.109292e+003,4.876494e+002
1.110257e+003,4.838725e+002
1.111221e+003,4.800392e+002
1.112185e+003,4.750426e+002
1.113149e+003,4.688483e+002
1.114114e+003,4.614985e+002
1.115078e+003,4.530765e+002
1.116042e+003,4.458480e+002
1.117006e+003,4.417781e+002
1.117970e+003,4.376605e+002
1.118935e+003,4.320828e+002
1.119899e+003,4.253849e+002
1.120863e+003,4.181720e+002
1.121827e+003,4.109698e+002
1.122792e+003,4.042816e+002
1.123756e+003,3.985231e+002
1.124720e+003,3.929728e+002
1.125684e+003,3.854684e+002
1.126649e+003,3.762700e+002
1.127613e+003,3.679951e+002
1.128577e+003,3.616005e+002
1.129541e+003,3.564304e+002
1.130505e+003,3.517844e+002
1.131470e+003,3.476699e+002
1.132434e+003,3.426239e+002
1.133398e+003,3.355860e+002
1.134362e+003,3.288146e+002
1.135327e+003,3.228967e+002
1.136291e+003,3.177142e+002
1.137255e+003,3.134727e+002
1.138219e+003,3.101029e+002
1.139184e+003,3.067458e+002
1.140148e+003,3.020637e+002
1.141112e+003,2.957177e+002
1.142076e+003,2.890571e+002
1.143041e+003,2.825536e+002
1.144005e+003,2.762750e+002
1.144969e+003,2.697422e+002
1.145933e+003,2.636565e+002
1.146897e+003,2.594559e+002
1.147862e+003,2.572076e+002
1.148826e+003,2.541554e+002
1.149790e+003,2.490009e+002
1.150754e+003,2.432866e+002
1.151719e+003,2.373942e+002
1.152683e+003,2.318062e+002
1.153647e+003,2.271380e+002
1.154611e+003,2.236201e+002
1.155576e+003,2.208353e+002
1.156540e+003,2.180645e+002
1.157504e+003,2.149256e+002
1.158468e+003,2.113316e+002
1.159432e+003,2.082105e+002
1.160397e+003,2.042000e+002
1.161361e+003,1.981434e+002
1.162325e+003,1.919863e+002
1.163289e+003,1.882079e+002
1.164254e+003,1.867785e+002
1.165218e+003,1.848132e+002
1.166182e+003,1.808487e+002
1.167146e+003,1.763109e+002
1.168111e+003,1.719069e+002
1.169075e+003,1.678038e+002
1.170039e+003,1.647595e+002
1.171003e+003,1.628754e+002
1.171968e+003,1.607545e+002
1.172932e+003,1.564129e+002
1.173896e+003,1.498049e+002
1.174860e+003,1.452881e+002
1.175824e+003,1.448790e+002
1.176789e+003,1.432892e+002
1.177753e+003,1.392333e+002
1.178717e+003,1.345722e+002
1.179681e+003,1.308901e+002
1.180646e+003,1.282126e+002
1.181610e+003,1.255851e+002
1.182574e+003,1.225100e+002
1.183538e+003,1.193311e+002
1.184503e+003,1.164645e+002
1.185467e+003,1.139017e+002
1.186431e+003,1.116539e+002
1.187395e+003,1.096080e+002
1.188359e+003,1.075966e+002
1.189324e+003,1.058147e+002
1.190288e+003,1.043803e+002
1.191252e+003,1.020529e+002
1.192216e+003,9.760089e+001
1.193181e+003,9.402246e+001
1.194145e+003,9.193216e+001
1.195109e+003,8.999939e+001
1.196073e+003,8.785233e+001
1.197038e+003,8.545363e+001
1.198002e+003,8.249083e+001
1.198966e+003,7.872121e+001
1.199930e+003,7.495985e+001
1.200895e+003,7.251178e+001
1.201859e+003,7.119690e+001
1.202823e+003,7.033101e+001
1.203787e+003,6.996730e+001
1.204751e+003,6.898019e+001
1.205716e+003,6.612057e+001
1.206680e+003,6.221996e+001
1.207644e+003,5.980762e+001
1.208608e+003,5.939110e+001
1.209573e+003,5.831294e+001
1.210537e+003,5.523668e+001
1.211501e+003,5.256134e+001
1.212465e+003,5.181938e+001
1.213430e+003,5.195767e+001
1.214394e+003,5.103806e+001
1.215358e+003,4.828494e+001
1.216322e+003,4.461276e+001
1.217286e+003,4.144130e+001
1.218251e+003,3.893674e+001
1.219215e+003,3.713913e+001
1.220179e+003,3.626375e+001
1.221143e+003,3.578384e+001
1.222108e+003,3.558006e+001
1.223072e+003,3.567645e+001
1.224036e+003,3.615042e+001
1.225000e+003,3.674123e+001
1.225965e+003,3.667390e+001
1.226929e+003,3.567107e+001
1.227893e+003,3.373465e+001
1.228857e+003,3.077809e+001
1.229822e+003,2.821577e+001
1.230786e+003,2.744844e+001
1.231750e+003,2.815413e+001
1.232714e+003,2.860710e+001
1.233678e+003,2.740070e+001
1.234643e+003,2.499066e+001
1.235607e+003,2.337624e+001
1.236571e+003,2.320789e+001
1.237535e+003,2.337788e+001
1.238500e+003,2.401068e+001
1.239464e+003,2.440826e+001
1.240428e+003,2.406038e+001
1.241392e+003,2.310321e+001
1.242357e+003,2.196527e+001
1.243321e+003,2.095207e+001
1.244285e+003,2.019843e+001
1.245249e+003,1.953590e+001
1.246214e+003,1.929842e+001
1.247178e+003,1.984572e+001
1.248142e+003,2.085393e+001
1.249106e+003,2.195720e+001
1.250070e+003,2.332271e+001
1.251035e+003,2.434981e+001
1.251999e+003,2.384097e+001
1.252963e+003,2.168817e+001
1.253927e+003,1.973015e+001
1.254892e+003,1.782423e+001
1.255856e+003,1.677296e+001
1.256820e+003,1.750217e+001
1.257784e+003,1.825801e+001
1.258749e+003,1.742738e+001
1.259713e+003,1.537650e+001
1.260677e+003,1.348373e+001
1.261641e+003,1.256706e+001
1.262605e+003,1.256241e+001
1.263570e+003,1.359850e+001
1.264534e+003,1.576184e+001
1.265498e+003,1.727763e+001
1.266462e+003,1.827760e+001
1.267427e+003,1.854790e+001
1.268391e+003,1.721674e+001
1.269355e+003,1.513530e+001
1.270319e+003,1.382986e+001
1.271284e+003,1.357822e+001
1.272248e+003,1.429652e+001
1.273212e+003,1.710872e+001
1.274176e+003,1.979822e+001
1.275141e+003,2.007898e+001
1.276105e+003,1.865913e+001
1.277069e+003,1.671577e+001
1.278033e+003,1.486871e+001
1.278997e+003,1.346321e+001
1.279962e+003,1.283023e+001
1.280926e+003,1.313379e+001
1.281890e+003,1.422702e+001
1.282854e+003,1.634717e+001
1.283819e+003,1.684351e+001
1.284783e+003,1.494969e+001
1.285747e+003,1.308572e+001
1.286711e+003,1.278615e+001
1.287676e+003,1.344545e+001
1.288640e+003,1.349330e+001
1.289604e+003,1.249303e+001
1.290568e+003,1.202545e+001
1.291532e+003,1.385394e+001
1.292497e+003,1.652773e+001
1.293461e+003,1.675682e+001
1.294425e+003,1.515509e+001
1.295389e+003,1.424231e+001
1.296354e+003,1.493785e+001
1.297318e+003,1.576343e+001
1.298282e+003,1.485503e+001
1.299246e+003,1.252440e+001
1.300211e+003,1.138496e+001
1.301175e+003,1.240987e+001
1.302139e+003,1.346135e+001
1.303103e+003,1.306090e+001
1.304068e+003,1.252922e+001
1.305032e+003,1.316896e+001
1.305996e+003,1.436613e+001
1.306960e+003,1.471378e+001
1.307924e+003,1.380075e+001
1.308889e+003,1.266862e+001
1.309853e+003,1.247615e+001
1.310817e+003,1.274951e+001
1.311781e+003,1.220337e+001
1.312746e+003,1.094337e+001
1.313710e+003,1.060039e+001
1.314674e+003,1.174318e+001
1.315638e+003,1.308394e+001
1.316603e+003,1.363333e+001
1.317567e+003,1.320695e+001
1.318531e+003,1.183151e+001
1.319495e+003,9.755646e+000
1.320459e+003,8.909393e+000
1.321424e+003,1.140717e+001
1.322388e+003,1.480936e+001
1.323352e+003,1.534425e+001
1.324316e+003,1.345949e+001
1.325281e+003,1.189560e+001
1.326245e+003,1.192421e+001
1.327209e+003,1.238593e+001
1.328173e+003,1.134076e+001
1.329138e+003,8.805984e+000
1.330102e+003,7.818527e+000
1.331066e+003,9.759354e+000
1.332030e+003,1.144730e+001
1.332995e+003,1.132120e+001
1.333959e+003,1.098047e+001
1.334923e+003,1.168425e+001
1.335887e+003,1.301266e+001
1.336851e+003,1.405589e+001
1.337816e+003,1.451093e+001
1.338780e+003,1.472934e+001
1.339744e+003,1.495578e+001
1.340708e+003,1.491452e+001
1.341673e+003,1.394963e+001
1.342637e+003,1.128848e+001
1.343601e+003,9.648697e+000
1.344565e+003,1.022316e+001
1.345530e+003,1.146695e+001
1.346494e+003,1.235889e+001
1.347458e+003,1.284471e+001
1.348422e+003,1.299712e+001
1.349386e+003,1.269653e+001
1.350351e+003,1.201059e+001
1.351315e+003,1.104999e+001
1.352279e+003,1.018701e+001
1.353243e+003,9.784561e+000
1.354208e+003,9.820831e+000
1.355172e+003,9.953873e+000
1.356136e+003,9.836563e+000
1.357100e+003,9.827103e+000
1.358065e+003,1.090219e+001
1.359029e+003,1.293257e+001
1.359993e+003,1.361023e+001
1.360957e+003,1.246753e+001
1.361922e+003,1.131056e+001
1.362886e+003,1.024242e+001
1.363850e+003,9.579941e+000
1.364814e+003,9.722809e+000
1.365778e+003,1.002550e+001
1.366743e+003,9.445999e+000
1.367707e+003,7.935364e+000
1.368671e+003,6.773178e+000
1.369635e+003,7.342545e+000
1.370600e+003,9.318024e+000
1.371564e+003,1.047919e+001
1.372528e+003,1.003400e+001
1.373492e+003,9.993790e+000
1.374457e+003,1.056332e+001
1.375421e+003,1.099080e+001
1.376385e+003,1.113202e+001
1.377349e+003,1.109827e+001
1.378313e+003,1.097464e+001
1.379278e+003,1.068298e+001
1.380242e+003,9.912582e+000
1.381206e+003,8.389572e+000
1.382170e+003,7.038147e+000
1.383135e+003,7.501862e+000
1.384099e+003,9.079178e+000
1.385063e+003,9.739822e+000
1.386027e+003,8.806549e+000
1.386992e+003,7.693771e+000
1.387956e+003,7.763336e+000
1.388920e+003,8.609406e+000
1.389884e+003,9.163727e+000
1.390849e+003,9.456726e+000
1.391813e+003,9.708237e+000
1.392777e+003,9.628326e+000
1.393741e+003,8.955490e+000
1.394705e+003,7.716919e+000
1.395670e+003,6.790192e+000
1.396634e+003,6.473526e+000
1.397598e+003,6.613235e+000
1.398562e+003,7.364960e+000
1.399527e+003,8.957535e+000
1.400491e+003,1.079315e+001
1.401455e+003,1.163078e+001
1.402419e+003,1.140285e+001
1.403384e+003,1.117722e+001
1.404348e+003,1.059389e+001
1.405312e+003,9.681107e+000
1.406276e+003,8.967484e+000
1.407240e+003,8.814133e+000
1.408205e+003,8.615814e+000
1.409169e+003,8.464615e+000
1.410133e+003,9.306183e+000
1.411097e+003,1.119621e+001
1.412062e+003,1.251003e+001
1.413026e+003,1.194380e+001
1.413990e+003,1.051241e+001
1.414954e+003,1.019241e+001
1.415919e+003,1.082637e+001
1.416883e+003,1.132324e+001
1.417847e+003,1.110423e+001
1.418811e+003,1.103749e+001
1.419776e+003,1.221483e+001
1.420740e+003,1.364687e+001
1.421704e+003,1.357852e+001
1.422668e+003,1.203268e+001
1.423632e+003,1.068518e+001
1.424597e+003,9.971786e+000
1.425561e+003,1.009842e+001
1.426525e+003,1.245378e+001
1.427489e+003,1.538049e+001
1.428454e+003,1.617192e+001
1.429418e+003,1.476688e+001
1.430382e+003,1.314616e+001
1.431346e+003,1.210095e+001
1.432311e+003,1.119870e+001
1.433275e+003,1.022603e+001
1.434239e+003,9.576370e+000
1.435203e+003,9.239609e+000
1.436167e+003,8.768814e+000
1.437132e+003,8.527893e+000
1.438096e+003,8.704346e+000
1.439060e+003,8.896545e+000
1.440024e+003,9.286545e+000
1.440989e+003,9.895645e+000
1.441953e+003,1.047481e+001
1.442917e+003,1.075632e+001
1.443881e+003,1.053709e+001
1.444846e+003,9.773331e+000
1.445810e+003,9.009415e+000
1.446774e+003,9.699982e+000
1.447738e+003,1.267894e+001
1.448703e+003,1.373708e+001
1.449667e+003,1.133319e+001
1.450631e+003,9.383499e+000
1.451595e+003,9.069733e+000
1.452559e+003,9.769348e+000
1.453524e+003,1.114215e+001
1.454488e+003,1.275249e+001
1.455452e+003,1.390497e+001
1.456416e+003,1.425693e+001
1.457381e+003,1.418971e+001
1.458345e+003,1.424611e+001
1.459309e+003,1.426315e+001
1.460273e+003,1.360277e+001
1.461238e+003,1.247629e+001
1.462202e+003,1.164621e+001
1.463166e+003,1.102255e+001
1.464130e+003,1.077051e+001
1.465094e+003,1.085995e+001
1.466059e+003,1.089803e+001
1.467023e+003,1.049130e+001
1.467987e+003,9.868088e+000
1.468951e+003,1.002583e+001
1.469916e+003,1.175221e+001
1.470880e+003,1.427559e+001
1.471844e+003,1.648219e+001
1.472808e+003,1.766913e+001
1.473773e+003,1.680840e+001
1.474737e+003,1.394803e+001
1.475701e+003,1.236668e+001
1.476665e+003,1.457417e+001
1.477630e+003,1.799103e+001
1.478594e+003,1.921198e+001
1.479558e+003,1.841272e+001
1.480522e+003,1.750851e+001
1.481486e+003,1.694702e+001
1.482451e+003,1.643170e+001
1.483415e+003,1.549969e+001
1.484379e+003,1.486508e+001
1.485343e+003,1.536499e+001
1.486308e+003,1.654796e+001
1.487272e+003,1.739372e+001
1.488236e+003,1.770966e+001
1.489200e+003,1.835191e+001
1.490165e+003,2.007346e+001
1.491129e+003,2.208412e+001
1.492093e+003,2.260008e+001
1.493057e+003,2.158270e+001
1.494021e+003,2.150330e+001
1.494986e+003,2.335484e+001
1.495950e+003,2.486084e+001
1.496914e+003,2.463730e+001
1.497878e+003,2.413855e+001
1.498843e+003,2.425261e+001
1.499807e+003,2.500519e+001
1.500771e+003,2.633145e+001
1.501735e+003,2.808313e+001
1.502700e+003,2.987823e+001
1.503664e+003,3.135266e+001
1.504628e+003,3.233876e+001
1.505592e+003,3.251183e+001
1.506557e+003,3.174716e+001
1.507521e+003,3.168596e+001
1.508485e+003,3.281262e+001
1.509449e+003,3.359206e+001
1.510413e+003,3.328401e+001
1.511378e+003,3.279279e+001
1.512342e+003,3.318037e+001
1.513306e+003,3.407121e+001
1.514270e+003,3.453285e+001
1.515235e+003,3.414870e+001
1.516199e+003,3.289877e+001
1.517163e+003,3.077934e+001
1.518127e+003,2.826784e+001
1.519092e+003,2.664156e+001
1.520056e+003,2.594730e+001
1.521020e+003,2.539305e+001
1.521984e+003,2.501357e+001
1.522948e+003,2.466351e+001
1.523913e+003,2.464064e+001
1.524877e+003,2.475369e+001
1.525841e+003,2.461566e+001
1.526805e+003,2.426006e+001
1.527770e+003,2.388597e+001
1.528734e+003,2.343237e+001
1.529698e+003,2.280624e+001
1.530662e+003,2.215967e+001
1.531627e+003,2.160645e+001
1.532591e+003,2.110902e+001
1.533555e+003,2.072031e+001
1.534519e+003,1.988637e+001
1.535484e+003,1.812294e+001
1.536448e+003,1.676991e+001
1.537412e+003,1.635301e+001
1.538376e+003,1.626808e+001
1.539340e+003,1.605157e+001
1.540305e+003,1.584926e+001
1.541269e+003,1.593539e+001
1.542233e+003,1.622186e+001
1.543197e+003,1.625182e+001
1.544162e+003,1.572594e+001
1.545126e+003,1.490900e+001
1.546090e+003,1.464133e+001
1.547054e+003,1.526070e+001
1.548019e+003,1.569141e+001
1.548983e+003,1.487924e+001
1.549947e+003,1.430034e+001
1.550911e+003,1.557669e+001
1.551875e+003,1.697250e+001
1.552840e+003,1.616550e+001
1.553804e+003,1.408295e+001
1.554768e+003,1.369699e+001
1.555732e+003,1.550905e+001
1.556697e+003,1.651529e+001
1.557661e+003,1.471855e+001
1.558625e+003,1.189735e+001
1.559589e+003,1.012965e+001
1.560554e+003,9.318130e+000
1.561518e+003,9.480560e+000
1.562482e+003,1.062341e+001
1.563446e+003,1.193700e+001
1.564411e+003,1.381711e+001
1.565375e+003,1.516528e+001
1.566339e+003,1.394576e+001
1.567303e+003,1.092342e+001
1.568267e+003,9.065674e+000
1.569232e+003,8.798355e+000
1.570196e+003,9.429977e+000
1.571160e+003,1.133138e+001
1.572124e+003,1.286359e+001
1.573089e+003,1.171504e+001
1.574053e+003,9.765778e+000
1.575017e+003,1.002637e+001
1.575981e+003,1.246851e+001
1.576946e+003,1.449854e+001
1.577910e+003,1.466731e+001
1.578874e+003,1.404059e+001
1.579838e+003,1.436917e+001
1.580802e+003,1.548009e+001
1.581767e+003,1.534106e+001
1.582731e+003,1.333363e+001
1.583695e+003,1.244710e+001
1.584659e+003,1.450372e+001
1.585624e+003,1.623061e+001
1.586588e+003,1.494524e+001
1.587552e+003,1.283626e+001
1.588516e+003,1.157887e+001
1.589481e+003,1.121634e+001
1.590445e+003,1.185759e+001
1.591409e+003,1.360085e+001
1.592373e+003,1.501851e+001
1.593338e+003,1.474825e+001
1.594302e+003,1.345274e+001
1.595266e+003,1.238808e+001
1.596230e+003,1.158250e+001
1.597194e+003,1.145502e+001
1.598159e+003,1.210835e+001
1.599123e+003,1.286479e+001
1.600087e+003,1.390860e+001
1.601051e+003,1.458194e+001
1.602016e+003,1.400491e+001
1.602980e+003,1.248524e+001
1.603944e+003,1.077092e+001
1.604908e+003,9.291901e+000
1.605873e+003,8.790161e+000
1.606837e+003,1.000337e+001
1.607801e+003,1.199846e+001
1.608765e+003,1.291325e+001
1.609729e+003,1.267570e+001
1.610694e+003,1.315431e+001
1.611658e+003,1.510332e+001
1.612622e+003,1.583047e+001
1.613586e+003,1.342308e+001
1.614551e+003,1.130280e+001
1.615515e+003,1.223441e+001
1.616479e+003,1.410567e+001
1.617443e+003,1.419496e+001
1.618408e+003,1.263643e+001
1.619372e+003,1.156610e+001
1.620336e+003,1.207474e+001
1.621300e+003,1.316245e+001
1.622265e+003,1.373894e+001
1.623229e+003,1.386830e+001
1.624193e+003,1.386798e+001
1.625157e+003,1.368163e+001
1.626121e+003,1.347575e+001
1.627086e+003,1.337819e+001
1.628050e+003,1.327849e+001
1.629014e+003,1.270370e+001
1.629978e+003,1.217589e+001
1.630943e+003,1.263141e+001
1.631907e+003,1.361386e+001
1.632871e+003,1.387686e+001
1.633835e+003,1.328458e+001
1.634800e+003,1.298996e+001
1.635764e+003,1.400002e+001
1.636728e+003,1.540849e+001
1.637692e+003,1.548175e+001
1.638656e+003,1.429468e+001
1.639621e+003,1.338864e+001
1.640585e+003,1.293819e+001
1.641549e+003,1.268170e+001
1.642513e+003,1.299709e+001
1.643478e+003,1.370512e+001
1.644442e+003,1.461256e+001
1.645406e+003,1.527539e+001
1.646370e+003,1.486250e+001
1.647335e+003,1.351053e+001
1.648299e+003,1.265411e+001
1.649263e+003,1.285840e+001
1.650227e+003,1.364764e+001
1.651192e+003,1.518367e+001
1.652156e+003,1.678722e+001
1.653120e+003,1.704196e+001
1.654084e+003,1.611319e+001
1.655048e+003,1.503917e+001
1.656013e+003,1.385548e+001
1.656977e+003,1.351288e+001
1.657941e+003,1.469353e+001
1.658905e+003,1.628375e+001
1.659870e+003,1.757571e+001
1.660834e+003,1.868768e+001
1.661798e+003,1.925157e+001
1.662762e+003,1.906665e+001
1.663727e+003,1.836453e+001
1.664691e+003,1.684668e+001
1.665655e+003,1.543030e+001
1.666619e+003,1.475909e+001
1.667583e+003,1.494801e+001
1.668548e+003,1.657463e+001
1.669512e+003,1.916971e+001
1.670476e+003,2.009367e+001
1.671440e+003,1.855998e+001
1.672405e+003,1.713777e+001
1.673369e+003,1.762073e+001
1.674333e+003,1.903326e+001
1.675297e+003,1.984442e+001
1.676262e+003,2.008684e+001
1.677226e+003,1.987355e+001
1.678190e+003,1.886566e+001
1.679154e+003,1.853157e+001
1.680119e+003,2.041466e+001
1.681083e+003,2.203586e+001
1.682047e+003,2.080586e+001
1.683011e+003,1.834846e+001
1.683975e+003,1.754100e+001
1.684940e+003,1.873189e+001
1.685904e+003,2.107135e+001
1.686868e+003,2.418127e+001
1.687832e+003,2.689308e+001
1.688797e+003,2.790086e+001
1.689761e+003,2.744131e+001
1.690725e+003,2.680399e+001
1.691689e+003,2.616415e+001
1.692654e+003,2.568636e+001
1.693618e+003,2.561742e+001
1.694582e+003,2.598645e+001
1.695546e+003,2.658044e+001
1.696510e+003,2.695271e+001
1.697475e+003,2.699786e+001
1.698439e+003,2.705249e+001
1.699403e+003,2.739679e+001
1.700367e+003,2.812161e+001
1.701332e+003,2.941486e+001
1.702296e+003,3.128386e+001
1.703260e+003,3.288390e+001
1.704224e+003,3.315411e+001
1.705189e+003,3.226694e+001
1.706153e+003,3.149564e+001
1.707117e+003,3.070358e+001
1.708081e+003,2.992746e+001
1.709046e+003,2.986183e+001
1.710010e+003,3.063200e+001
1.710974e+003,3.228375e+001
1.711938e+003,3.360333e+001
1.712902e+003,3.334285e+001
1.713867e+003,3.246236e+001
1.714831e+003,3.284290e+001
1.715795e+003,3.464276e+001
1.716759e+003,3.667404e+001
1.717724e+003,3.811298e+001
1.718688e+003,3.829778e+001
1.719652e+003,3.610284e+001
1.720616e+003,3.249428e+001
1.721581e+003,3.229137e+001
1.722545e+003,3.659612e+001
1.723509e+003,3.901653e+001
1.724473e+003,3.823584e+001
1.725438e+003,3.788956e+001
1.726402e+003,3.987611e+001
1.727366e+003,4.110414e+001
1.728330e+003,3.887741e+001
1.729294e+003,3.574486e+001
1.730259e+003,3.543588e+001
1.731223e+003,3.766342e+001
1.732187e+003,3.904422e+001
1.733151e+003,3.797699e+001
1.734116e+003,3.654062e+001
1.735080e+003,3.744308e+001
1.736044e+003,3.957970e+001
1.737008e+003,3.964685e+001
1.737973e+003,3.766234e+001
1.738937e+003,3.593631e+001
1.739901e+003,3.481087e+001
1.740865e+003,3.365208e+001
1.741829e+003,3.200618e+001
1.742794e+003,3.077045e+001
1.743758e+003,3.090515e+001
1.744722e+003,3.191859e+001
1.745686e+003,3.331540e+001
1.746651e+003,3.490970e+001
1.747615e+003,3.575630e+001
1.748579e+003,3.531705e+001
1.749543e+003,3.472058e+001
1.750508e+003,3.468027e+001
1.751472e+003,3.503542e+001
1.752436e+003,3.553575e+001
1.753400e+003,3.598114e+001
1.754365e+003,3.632518e+001
1.755329e+003,3.658188e+001
1.756293e+003,3.639877e+001
1.757257e+003,3.561424e+001
1.758221e+003,3.479701e+001
1.759186e+003,3.456268e+001
1.760150e+003,3.487892e+001
1.761114e+003,3.507816e+001
1.762078e+003,3.465953e+001
1.763043e+003,3.467229e+001
1.764007e+003,3.563467e+001
1.764971e+003,3.592235e+001
1.765935e+003,3.577278e+001
1.766900e+003,3.547736e+001
1.767864e+003,3.472137e+001
1.768828e+003,3.387225e+001
1.769792e+003,3.334389e+001
1.770756e+003,3.318634e+001
1.771721e+003,3.307695e+001
1.772685e+003,3.281183e+001
1.773649e+003,3.296089e+001
1.774613e+003,3.433080e+001
1.775578e+003,3.631345e+001
1.776542e+003,3.715147e+001
1.777506e+003,3.674323e+001
1.778470e+003,3.501395e+001
1.779435e+003,3.072267e+001
1.780399e+003,2.833315e+001
1.781363e+003,3.042599e+001
1.782327e+003,3.236206e+001
1.783292e+003,3.172440e+001
1.784256e+003,3.015666e+001
1.785220e+003,2.898094e+001
1.786184e+003,2.845581e+001
1.787148e+003,2.859949e+001
1.788113e+003,2.917625e+001
1.789077e+003,2.950450e+001
1.790041e+003,2.911592e+001
1.791005e+003,2.862065e+001
1.791970e+003,2.908743e+001
1.792934e+003,3.012267e+001
1.793898e+003,3.063147e+001
1.794862e+003,3.052908e+001
1.795827e+003,2.942641e+001
1.796791e+003,2.708144e+001
1.797755e+003,2.601085e+001
1.798719e+003,2.802325e+001
1.799683e+003,3.035643e+001
1.800648e+003,2.956395e+001
1.801612e+003,2.680164e+001
1.802576e+003,2.622713e+001
1.803540e+003,2.783545e+001
1.804505e+003,2.828510e+001
1.805469e+003,2.701593e+001
1.806433e+003,2.638138e+001
1.807397e+003,2.697290e+001
1.808362e+003,2.766893e+001
1.809326e+003,2.773413e+001
1.810290e+003,2.754994e+001
1.811254e+003,2.777301e+001
1.812219e+003,2.835094e+001
1.813183e+003,2.877824e+001
1.814147e+003,2.866693e+001
1.815111e+003,2.786429e+001
1.816075e+003,2.655727e+001
1.817040e+003,2.536916e+001
1.818004e+003,2.491269e+001
1.818968e+003,2.515062e+001
1.819932e+003,2.563591e+001
1.820897e+003,2.572488e+001
1.821861e+003,2.607071e+001
1.822825e+003,2.732179e+001
1.823789e+003,2.837309e+001
1.824754e+003,2.952379e+001
1.825718e+003,3.058897e+001
1.826682e+003,3.067249e+001
1.827646e+003,3.012779e+001
1.828610e+003,2.989810e+001
1.829575e+003,3.015384e+001
1.830539e+003,3.055847e+001
1.831503e+003,3.102003e+001
1.832467e+003,3.123737e+001
1.833432e+003,3.099416e+001
1.834396e+003,3.021504e+001
1.835360e+003,2.863762e+001
1.836324e+003,2.701114e+001
1.837289e+003,2.668692e+001
1.838253e+003,2.734300e+001
1.839217e+003,2.773701e+001
1.840181e+003,2.756755e+001
1.841146e+003,2.752788e+001
1.842110e+003,2.831004e+001
1.843074e+003,2.973848e+001
1.844038e+003,3.129047e+001
1.845002e+003,3.283995e+001
1.845967e+003,3.299547e+001
1.846931e+003,3.049762e+001
1.847895e+003,2.922098e+001
1.848859e+003,2.898598e+001
1.849824e+003,2.909006e+001
1.850788e+003,3.057970e+001
1.851752e+003,3.182526e+001
1.852716e+003,3.136499e+001
1.853681e+003,3.036888e+001
1.854645e+003,3.029445e+001
1.855609e+003,3.106741e+001
1.856573e+003,3.171767e+001
1.857537e+003,3.170192e+001
1.858502e+003,3.157033e+001
1.859466e+003,3.250047e+001
1.860430e+003,3.395621e+001
1.861394e+003,3.369777e+001
1.862359e+003,3.181886e+001
1.863323e+003,3.045317e+001
1.864287e+003,2.966054e+001
1.865251e+003,2.989600e+001
1.866216e+003,3.196663e+001
1.867180e+003,3.382906e+001
1.868144e+003,3.375000e+001
1.869108e+003,3.240428e+001
1.870073e+003,3.061552e+001
1.871037e+003,2.888135e+001
1.872001e+003,2.899002e+001
1.872965e+003,3.151428e+001
1.873929e+003,3.294037e+001
1.874894e+003,3.135616e+001
1.875858e+003,2.995547e+001
1.876822e+003,3.046779e+001
1.877786e+003,3.124300e+001
1.878751e+003,3.086867e+001
1.879715e+003,3.013542e+001
1.880679e+003,3.033998e+001
1.881643e+003,3.109596e+001
1.882608e+003,3.086610e+001
1.883572e+003,2.933078e+001
1.884536e+003,2.798433e+001
1.885500e+003,2.792339e+001
1.886464e+003,2.850572e+001
1.887429e+003,2.903957e+001
1.888393e+003,2.977115e+001
1.889357e+003,3.060524e+001
1.890321e+003,3.141518e+001
1.891286e+003,3.209396e+001
1.892250e+003,3.254320e+001
1.893214e+003,3.241484e+001
1.894178e+003,3.153018e+001
1.895143e+003,3.107150e+001
1.896107e+003,3.188141e+001
1.897071e+003,3.334697e+001
1.898035e+003,3.451103e+001
1.899000e+003,3.500359e+001
1.899964e+003,3.491589e+001
1.900928e+003,3.531987e+001
1.901892e+003,3.541524e+001
1.902856e+003,3.366945e+001
1.903821e+003,3.210991e+001
1.904785e+003,3.166096e+001
1.905749e+003,3.155663e+001
1.906713e+003,3.185162e+001
1.907678e+003,3.238197e+001
1.908642e+003,3.228458e+001
1.909606e+003,3.152583e+001
1.910570e+003,3.108638e+001
1.911535e+003,3.148929e+001
1.912499e+003,3.221049e+001
1.913463e+003,3.253879e+001
1.914427e+003,3.221713e+001
1.915391e+003,3.121292e+001
1.916356e+003,3.003160e+001
1.917320e+003,3.013193e+001
1.918284e+003,3.175038e+001
1.919248e+003,3.233302e+001
1.920213e+003,3.042296e+001
1.921177e+003,2.920644e+001
1.922141e+003,3.127354e+001
1.923105e+003,3.348572e+001
1.924070e+003,3.182552e+001
1.925034e+003,2.803331e+001
1.925998e+003,2.708127e+001
1.926962e+003,2.901558e+001
1.927927e+003,3.073863e+001
1.928891e+003,3.306171e+001
1.929855e+003,3.365860e+001
1.930819e+003,3.048631e+001
1.931783e+003,2.730431e+001
1.932748e+003,2.560980e+001
1.933712e+003,2.531621e+001
1.934676e+003,2.714737e+001
1.935640e+003,2.961850e+001
1.936605e+003,3.020935e+001
1.937569e+003,2.865744e+001
1.938533e+003,2.640590e+001
1.939497e+003,2.453641e+001
1.940462e+003,2.412228e+001
1.941426e+003,2.610811e+001
1.942390e+003,2.881952e+001
1.943354e+003,2.972423e+001
1.944318e+003,2.896413e+001
1.945283e+003,2.774527e+001
1.946247e+003,2.665205e+001
1.947211e+003,2.655287e+001
1.948175e+003,2.764912e+001
1.949140e+003,2.787907e+001
1.950104e+003,2.561685e+001
1.951068e+003,2.280714e+001
1.952032e+003,2.195918e+001
1.952997e+003,2.261052e+001
1.953961e+003,2.300838e+001
1.954925e+003,2.305190e+001
1.955889e+003,2.358192e+001
1.956854e+003,2.524112e+001
1.957818e+003,2.637274e+001
1.958782e+003,2.678215e+001
1.959746e+003,2.719164e+001
1.960710e+003,2.733722e+001
1.961675e+003,2.702121e+001
1.962639e+003,2.615340e+001
1.963603e+003,2.537166e+001
1.964567e+003,2.544417e+001
1.965532e+003,2.622112e+001
1.966496e+003,2.716251e+001
1.967460e+003,2.822334e+001
1.968424e+003,2.815048e+001
1.969389e+003,2.519977e+001
1.970353e+003,2.215903e+001
1.971317e+003,2.134659e+001
1.972281e+003,2.182681e+001
1.973245e+003,2.301952e+001
1.974210e+003,2.442110e+001
1.975174e+003,2.471649e+001
1.976138e+003,2.396234e+001
1.977102e+003,2.367728e+001
1.978067e+003,2.432823e+001
1.979031e+003,2.458652e+001
1.979995e+003,2.334714e+001
1.980959e+003,2.186919e+001
1.981924e+003,2.269580e+001
1.982888e+003,2.549341e+001
1.983852e+003,2.682323e+001
1.984816e+003,2.641077e+001
1.985781e+003,2.686478e+001
1.986745e+003,2.912720e+001
1.987709e+003,3.007513e+001
1.988673e+003,2.783765e+001
1.989637e+003,2.514473e+001
1.990602e+003,2.383716e+001
1.991566e+003,2.325237e+001
1.992530e+003,2.280644e+001
1.993494e+003,2.284851e+001
1.994459e+003,2.347086e+001
1.995423e+003,2.462764e+001
1.996387e+003,2.529239e+001
1.997351e+003,2.497440e+001
1.998316e+003,2.451009e+001
1.999280e+003,2.394377e+001
2.000244e+003,2.414977e+001
2.001208e+003,2.654468e+001
2.002172e+003,2.889491e+001
2.003137e+003,2.817528e+001
2.004101e+003,2.576807e+001
2.005065e+003,2.514404e+001
2.006029e+003,2.665376e+001
2.006994e+003,2.759174e+001
2.007958e+003,2.654350e+001
2.008922e+003,2.521776e+001
2.009886e+003,2.525417e+001
2.010851e+003,2.601006e+001
2.011815e+003,2.696066e+001
2.012779e+003,2.750784e+001
2.013743e+003,2.628856e+001
2.014708e+003,2.414204e+001
2.015672e+003,2.342126e+001
2.016636e+003,2.451598e+001
2.017600e+003,2.645204e+001
2.018564e+003,2.854001e+001
2.019529e+003,3.000661e+001
2.020493e+003,3.031703e+001
2.021457e+003,2.976863e+001
2.022421e+003,2.811459e+001
2.023386e+003,2.560605e+001
2.024350e+003,2.493593e+001
2.025314e+003,2.609781e+001
2.026278e+003,2.661015e+001
2.027243e+003,2.619582e+001
2.028207e+003,2.623724e+001
2.029171e+003,2.726978e+001
2.030135e+003,2.780830e+001
2.031099e+003,2.643005e+001
2.032064e+003,2.495786e+001
2.033028e+003,2.648904e+001
2.033992e+003,2.973505e+001
2.034956e+003,2.926051e+001
2.035921e+003,2.436223e+001
2.036885e+003,2.257782e+001
2.037849e+003,2.602808e+001
2.038813e+003,2.890175e+001
2.039778e+003,2.894685e+001
2.040742e+003,2.819867e+001
2.041706e+003,2.776448e+001
2.042670e+003,2.769662e+001
2.043635e+003,2.822845e+001
2.044599e+003,2.882349e+001
2.045563e+003,2.861389e+001
2.046527e+003,2.772408e+001
2.047491e+003,2.677240e+001
2.048456e+003,2.581149e+001
2.049420e+003,2.559695e+001
2.050384e+003,2.658795e+001
2.051348e+003,2.701460e+001
2.052313e+003,2.589484e+001
2.053277e+003,2.471623e+001
2.054241e+003,2.481952e+001
2.055205e+003,2.566837e+001
2.056170e+003,2.594293e+001
2.057134e+003,2.558856e+001
2.058098e+003,2.576953e+001
2.059062e+003,2.695313e+001
2.060027e+003,2.839684e+001
2.060991e+003,2.965659e+001
2.061955e+003,3.014476e+001
2.062919e+003,2.867192e+001
2.063884e+003,2.655019e+001
2.064848e+003,2.568549e+001
2.065812e+003,2.582886e+001
2.066776e+003,2.608730e+001
2.067740e+003,2.611656e+001
2.068705e+003,2.589430e+001
2.069669e+003,2.551131e+001
2.070633e+003,2.497902e+001
2.071597e+003,2.428101e+001
2.072562e+003,2.375143e+001
2.073526e+003,2.400516e+001
2.074490e+003,2.492026e+001
2.075454e+003,2.558403e+001
2.076418e+003,2.576785e+001
2.077383e+003,2.548004e+001
2.078347e+003,2.451399e+001
2.079311e+003,2.397391e+001
2.080275e+003,2.467101e+001
2.081240e+003,2.574803e+001
2.082204e+003,2.651201e+001
2.083168e+003,2.627649e+001
2.084132e+003,2.439078e+001
2.085096e+003,2.228839e+001
2.086061e+003,2.214264e+001
2.087025e+003,2.346832e+001
2.087989e+003,2.411516e+001
2.088953e+003,2.406844e+001
2.089918e+003,2.394623e+001
2.090882e+003,2.369069e+001
2.091846e+003,2.352316e+001
2.092810e+003,2.372060e+001
2.093775e+003,2.324951e+001
2.094739e+003,2.090057e+001
2.095703e+003,1.924562e+001
2.096667e+003,2.066344e+001
2.097632e+003,2.305595e+001
2.098596e+003,2.381277e+001
2.099560e+003,2.336853e+001
2.100524e+003,2.238460e+001
2.101489e+003,2.005518e+001
2.102453e+003,1.892859e+001
2.103417e+003,1.990967e+001
2.104381e+003,2.112718e+001
2.105345e+003,2.364015e+001
2.106310e+003,2.498083e+001
2.107274e+003,2.338789e+001
2.108238e+003,2.148361e+001
2.109202e+003,2.057704e+001
2.110167e+003,2.046277e+001
2.111131e+003,2.149713e+001
2.112095e+003,2.284952e+001
2.113059e+003,2.180078e+001
2.114023e+003,1.822960e+001
2.114988e+003,1.674107e+001
2.115952e+003,1.899792e+001
2.116916e+003,2.018100e+001
2.117880e+003,1.840718e+001
2.118845e+003,1.656142e+001
2.119809e+003,1.721414e+001
2.120773e+003,1.847466e+001
2.121737e+003,1.707516e+001
2.122702e+003,1.491634e+001
2.123666e+003,1.633513e+001
2.124630e+003,2.042316e+001
2.125594e+003,2.203056e+001
2.126559e+003,1.987973e+001
2.127523e+003,1.764969e+001
2.128487e+003,1.706450e+001
2.129451e+003,1.705666e+001
2.130416e+003,1.639522e+001
2.131380e+003,1.627632e+001
2.132344e+003,1.881471e+001
2.133308e+003,2.156519e+001
2.134272e+003,2.137321e+001
2.135237e+003,1.900774e+001
2.136201e+003,1.624640e+001
2.137165e+003,1.400606e+001
2.138129e+003,1.332684e+001
2.139094e+003,1.461676e+001
2.140058e+003,1.661928e+001
2.141022e+003,1.873978e+001
2.141986e+003,1.993268e+001
2.142950e+003,1.935760e+001
2.143915e+003,1.786816e+001
2.144879e+003,1.537302e+001
2.145843e+003,1.295435e+001
2.146807e+003,1.275792e+001
2.147772e+003,1.427393e+001
2.148736e+003,1.560358e+001
2.149700e+003,1.596190e+001
2.150664e+003,1.515195e+001
2.151629e+003,1.328452e+001
2.152593e+003,1.168932e+001
2.153557e+003,1.141663e+001
2.154521e+003,1.235736e+001
2.155486e+003,1.521739e+001
2.156450e+003,1.788086e+001
2.157414e+003,1.683717e+001
2.158378e+003,1.393964e+001
2.159343e+003,1.269006e+001
2.160307e+003,1.297394e+001
2.161271e+003,1.309273e+001
2.162235e+003,1.260835e+001
2.163199e+003,1.215369e+001
2.164164e+003,1.207359e+001
2.165128e+003,1.196161e+001
2.166092e+003,1.138065e+001
2.167056e+003,1.114714e+001
2.168021e+003,1.270261e+001
2.168985e+003,1.451372e+001
2.169949e+003,1.397791e+001
2.170913e+003,1.206566e+001
2.171877e+003,1.068604e+001
2.172842e+003,1.021547e+001
2.173806e+003,1.081143e+001
2.174770e+003,1.206543e+001
2.175734e+003,1.247337e+001
2.176699e+003,1.142586e+001
2.177663e+003,1.058781e+001
2.178627e+003,1.156801e+001
2.179591e+003,1.313976e+001
2.180556e+003,1.330956e+001
2.181520e+003,1.240512e+001
2.182484e+003,1.126447e+001
2.183448e+003,1.029973e+001
2.184413e+003,1.031064e+001
2.185377e+003,1.111052e+001
2.186341e+003,1.211455e+001
2.187305e+003,1.292891e+001
2.188270e+003,1.266798e+001
2.189234e+003,1.118037e+001
2.190198e+003,9.549103e+000
2.191162e+003,8.322739e+000
2.192126e+003,7.478058e+000
2.193091e+003,7.830780e+000
2.194055e+003,8.761581e+000
2.195019e+003,8.413406e+000
2.195983e+003,7.494171e+000
2.196948e+003,7.774689e+000
2.197912e+003,8.907272e+000
2.198876e+003,9.184464e+000
2.199840e+003,8.326904e+000
2.200804e+003,7.220001e+000
2.201769e+003,6.300995e+000
2.202733e+003,6.022400e+000
2.203697e+003,6.898712e+000
2.204661e+003,7.999481e+000
2.205626e+003,7.703812e+000
2.206590e+003,7.100311e+000
2.207554e+003,8.920837e+000
2.208518e+003,1.151917e+001
2.209483e+003,1.063123e+001
2.210447e+003,7.347397e+000
2.211411e+003,5.375320e+000
2.212375e+003,5.244141e+000
2.213340e+003,6.588623e+000
2.214304e+003,8.970627e+000
2.215268e+003,1.038387e+001
2.216232e+003,9.428955e+000
2.217197e+003,7.618103e+000
2.218161e+003,6.837051e+000
2.219125e+003,6.666443e+000
2.220089e+003,6.392502e+000
2.221053e+003,6.328842e+000
2.222018e+003,6.299911e+000
2.222982e+003,6.140259e+000
2.223946e+003,6.992874e+000
2.224910e+003,8.693298e+000
2.225875e+003,9.069351e+000
2.226839e+003,7.663727e+000
2.227803e+003,6.082764e+000
2.228767e+003,5.075211e+000
2.229731e+003,3.880020e+000
2.230696e+003,1.753265e+000
2.231660e+003,0.000000e+000
2.232624e+003,1.042953e+000
2.233588e+003,3.516068e+000
2.234553e+003,4.437958e+000
2.235517e+003,4.699768e+000
2.236481e+003,6.567657e+000
2.237445e+003,9.210541e+000
2.238410e+003,1.069026e+001
2.239374e+003,1.086221e+001
2.240338e+003,9.915298e+000
2.241302e+003,8.121033e+000
2.242267e+003,7.355591e+000
2.243231e+003,9.107910e+000
2.244195e+003,1.082022e+001
2.245159e+003,9.177811e+000
2.246124e+003,6.620926e+000
2.247088e+003,6.306122e+000
2.248052e+003,6.731186e+000
2.249016e+003,6.093338e+000
2.249980e+003,4.807388e+000
2.250945e+003,3.509125e+000
2.251909e+003,2.546814e+000
2.252873e+003,1.909683e+000
2.253837e+003,1.590408e+000
2.254802e+003,2.538101e+000
2.255766e+003,5.479355e+000
2.256730e+003,8.003983e+000
2.257694e+003,7.826706e+000
2.258658e+003,7.073898e+000
2.259623e+003,7.805862e+000
2.260587e+003,8.339523e+000
2.261551e+003,6.021698e+000
2.262515e+003,3.531860e+000
2.263480e+003,5.170990e+000
2.264444e+003,9.030518e+000
2.265408e+003,1.087517e+001
2.266372e+003,1.012828e+001
2.267337e+003,8.339447e+000
2.268301e+003,6.062866e+000
2.269265e+003,4.547394e+000
2.270229e+003,4.937897e+000
2.271194e+003,6.502457e+000
2.272158e+003,8.576035e+000
2.273122e+003,1.013808e+001
2.274086e+003,1.143678e+001
2.275051e+003,1.179543e+001
2.276015e+003,9.760757e+000
2.276979e+003,7.633224e+000
2.277943e+003,8.266205e+000
2.278907e+003,1.074808e+001
2.279872e+003,1.287469e+001
2.280836e+003,1.408801e+001
2.281800e+003,1.351408e+001
2.282764e+003,1.019353e+001
2.283729e+003,8.442505e+000
2.284693e+003,1.062167e+001
2.285657e+003,1.257378e+001
2.286621e+003,1.189763e+001
2.287585e+003,1.102940e+001
2.288550e+003,1.192726e+001
2.289514e+003,1.327844e+001
2.290478e+003,1.381784e+001
2.291442e+003,1.403683e+001
2.292407e+003,1.481248e+001
2.293371e+003,1.570224e+001
2.294335e+003,1.506245e+001
2.295299e+003,1.238324e+001
2.296264e+003,1.081966e+001
2.297228e+003,1.092393e+001
2.298192e+003,1.127426e+001
2.299156e+003,1.164133e+001
2.300121e+003,1.353604e+001
2.301085e+003,1.800153e+001
2.302049e+003,2.119479e+001
2.303013e+003,2.091006e+001
2.303978e+003,1.916576e+001
2.304942e+003,1.769023e+001
2.305906e+003,1.666696e+001
2.306870e+003,1.684230e+001
2.307834e+003,1.806644e+001
2.308799e+003,1.892155e+001
2.309763e+003,1.957599e+001
2.310727e+003,2.060735e+001
2.311691e+003,2.182703e+001
2.312656e+003,2.226357e+001
2.313620e+003,2.172856e+001
2.314584e+003,2.223470e+001
2.315548e+003,2.460091e+001
2.316512e+003,2.584360e+001
2.317477e+003,2.403864e+001
2.318441e+003,2.269395e+001
2.319405e+003,2.596815e+001
2.320369e+003,3.122818e+001
2.321334e+003,3.246985e+001
2.322298e+003,3.092935e+001
2.323262e+003,3.189294e+001
2.324226e+003,3.523592e+001
2.325191e+003,3.942931e+001
2.326155e+003,4.345796e+001
2.327119e+003,4.517690e+001
2.328083e+003,4.444951e+001
2.329048e+003,4.316359e+001
2.330012e+003,4.244963e+001
2.330976e+003,4.237680e+001
2.331940e+003,4.252591e+001
2.332905e+003,4.238315e+001
2.333869e+003,4.170825e+001
2.334833e+003,4.145695e+001
2.335797e+003,4.270543e+001
2.336761e+003,4.472589e+001
2.337726e+003,4.637433e+001
2.338690e+003,4.754648e+001
2.339654e+003,4.877707e+001
2.340618e+003,5.024876e+001
2.341583e+003,5.193379e+001
2.342547e+003,5.376735e+001
2.343511e+003,5.504597e+001
2.344475e+003,5.532216e+001
2.345439e+003,5.681090e+001
2.346404e+003,6.210530e+001
2.347368e+003,6.513591e+001
2.348332e+003,6.198778e+001
2.349296e+003,6.002985e+001
2.350261e+003,6.360202e+001
2.351225e+003,6.787886e+001
2.352189e+003,6.836066e+001
2.353153e+003,6.829982e+001
2.354118e+003,7.255887e+001
2.355082e+003,7.854518e+001
2.356046e+003,8.020985e+001
2.357010e+003,7.852802e+001
2.357975e+003,8.062039e+001
2.358939e+003,8.780066e+001
2.359903e+003,9.246350e+001
2.360867e+003,9.254225e+001
2.361832e+003,9.465430e+001
2.362796e+003,1.014342e+002
2.363760e+003,1.058838e+002
2.364724e+003,1.054336e+002
2.365688e+003,1.050690e+002
2.366653e+003,1.070983e+002
2.367617e+003,1.099343e+002
2.368581e+003,1.124151e+002
2.369545e+003,1.150100e+002
2.370510e+003,1.187995e+002
2.371474e+003,1.232268e+002
2.372438e+003,1.249600e+002
2.373402e+003,1.244458e+002
2.374366e+003,1.239735e+002
2.375331e+003,1.238959e+002
2.376295e+003,1.247791e+002
2.377259e+003,1.266990e+002
2.378223e+003,1.298305e+002
2.379188e+003,1.338480e+002
2.380152e+003,1.372021e+002
2.381116e+003,1.391846e+002
2.382080e+003,1.404709e+002
2.383045e+003,1.412874e+002
2.384009e+003,1.419720e+002
2.384973e+003,1.430567e+002
2.385937e+003,1.442314e+002
2.386902e+003,1.452611e+002
2.387866e+003,1.467697e+002
2.388830e+003,1.493680e+002
2.389794e+003,1.516858e+002
2.390759e+003,1.518653e+002
2.391723e+003,1.505722e+002
2.392687e+003,1.498129e+002
2.393651e+003,1.502588e+002
2.394615e+003,1.516511e+002
2.395580e+003,1.538185e+002
2.396544e+003,1.558761e+002
2.397508e+003,1.575933e+002
2.398472e+003,1.591577e+002
2.399437e+003,1.612083e+002
2.400401e+003,1.629176e+002
2.401365e+003,1.641252e+002
2.402329e+003,1.641151e+002
2.403293e+003,1.616683e+002
2.404258e+003,1.592204e+002
2.405222e+003,1.597299e+002
2.406186e+003,1.622216e+002
2.407150e+003,1.641335e+002
2.408115e+003,1.654594e+002
2.409079e+003,1.670107e+002
2.410043e+003,1.687160e+002
2.411007e+003,1.694875e+002
2.411972e+003,1.695825e+002
2.412936e+003,1.717627e+002
2.413900e+003,1.756080e+002
2.414864e+003,1.766991e+002
2.415829e+003,1.744496e+002
2.416793e+003,1.721158e+002
2.417757e+003,1.711696e+002
2.418721e+003,1.713426e+002
2.419686e+003,1.727797e+002
2.420650e+003,1.745265e+002
2.421614e+003,1.751439e+002
2.422578e+003,1.757797e+002
2.423542e+003,1.783538e+002
2.424507e+003,1.806509e+002
2.425471e+003,1.801567e+002
2.426435e+003,1.786531e+002
2.427399e+003,1.776509e+002
2.428364e+003,1.770472e+002
2.429328e+003,1.772054e+002
2.430292e+003,1.782978e+002
2.431256e+003,1.794391e+002
2.432220e+003,1.804962e+002
2.433185e+003,1.804007e+002
2.434149e+003,1.770566e+002
2.435113e+003,1.751895e+002
2.436077e+003,1.761150e+002
2.437042e+003,1.768543e+002
2.438006e+003,1.773404e+002
2.438970e+003,1.761318e+002
2.439934e+003,1.718947e+002
2.440899e+003,1.678335e+002
2.441863e+003,1.666544e+002
2.442827e+003,1.671889e+002
2.443791e+003,1.675639e+002
2.444756e+003,1.673668e+002
2.445720e+003,1.660899e+002
2.446684e+003,1.639143e+002
2.447648e+003,1.612534e+002
2.448613e+003,1.584762e+002
2.449577e+003,1.570787e+002
2.450541e+003,1.566713e+002
2.451505e+003,1.555277e+002
2.452469e+003,1.536320e+002
2.453434e+003,1.516857e+002
2.454398e+003,1.496957e+002
2.455362e+003,1.484137e+002
2.456326e+003,1.491090e+002
2.457291e+003,1.500099e+002
2.458255e+003,1.488956e+002
2.459219e+003,1.478745e+002
2.460183e+003,1.483182e+002
2.461147e+003,1.477510e+002
2.462112e+003,1.448718e+002
2.463076e+003,1.421103e+002
2.464040e+003,1.404051e+002
2.465004e+003,1.392341e+002
2.465969e+003,1.394832e+002
2.466933e+003,1.402929e+002
2.467897e+003,1.386510e+002
2.468861e+003,1.346815e+002
2.469826e+003,1.324989e+002
2.470790e+003,1.324787e+002
2.471754e+003,1.321544e+002
2.472718e+003,1.317790e+002
2.473683e+003,1.315800e+002
2.474647e+003,1.310254e+002
2.475611e+003,1.300391e+002
2.476575e+003,1.290123e+002
2.477540e+003,1.277664e+002
2.478504e+003,1.260809e+002
2.479468e+003,1.247260e+002
2.480432e+003,1.243506e+002
2.481396e+003,1.241564e+002
2.482361e+003,1.234889e+002
2.483325e+003,1.229783e+002
2.484289e+003,1.226335e+002
2.485253e+003,1.221860e+002
2.486218e+003,1.221072e+002
2.487182e+003,1.215373e+002
2.488146e+003,1.194230e+002
2.489110e+003,1.168234e+002
2.490074e+003,1.146820e+002
2.491039e+003,1.135569e+002
2.492003e+003,1.145323e+002
2.492967e+003,1.168947e+002
2.493931e+003,1.168997e+002
2.494896e+003,1.140878e+002
2.495860e+003,1.132603e+002
2.496824e+003,1.153646e+002
2.497788e+003,1.163440e+002
2.498753e+003,1.152712e+002
2.499717e+003,1.143425e+002
2.500681e+003,1.142943e+002
2.501645e+003,1.147798e+002
2.502610e+003,1.154623e+002
2.503574e+003,1.153454e+002
2.504538e+003,1.138603e+002
2.505502e+003,1.124572e+002
2.506467e+003,1.123173e+002
2.507431e+003,1.127737e+002
2.508395e+003,1.143792e+002
2.509359e+003,1.155890e+002
2.510323e+003,1.129681e+002
2.511288e+003,1.096500e+002
2.512252e+003,1.103161e+002
2.513216e+003,1.129105e+002
2.514180e+003,1.137642e+002
2.515145e+003,1.131338e+002
2.516109e+003,1.127310e+002
2.517073e+003,1.127486e+002
2.518037e+003,1.129995e+002
2.519001e+003,1.134529e+002
2.519966e+003,1.141848e+002
2.520930e+003,1.157459e+002
2.521894e+003,1.158789e+002
2.522858e+003,1.139853e+002
2.523823e+003,1.125036e+002
2.524787e+003,1.119269e+002
2.525751e+003,1.128945e+002
2.526715e+003,1.157691e+002
2.527680e+003,1.178326e+002
2.528644e+003,1.171035e+002
2.529608e+003,1.153417e+002
2.530572e+003,1.138011e+002
2.531537e+003,1.128680e+002
2.532501e+003,1.149218e+002
2.533465e+003,1.169961e+002
2.534429e+003,1.144208e+002
2.535394e+003,1.107450e+002
2.536358e+003,1.098605e+002
2.537322e+003,1.105439e+002
2.538286e+003,1.112655e+002
2.539250e+003,1.118587e+002
2.540215e+003,1.121421e+002
2.541179e+003,1.121451e+002
2.542143e+003,1.131058e+002
2.543107e+003,1.159969e+002
2.544072e+003,1.170853e+002
2.545036e+003,1.150069e+002
2.546000e+003,1.142962e+002
2.546964e+003,1.153995e+002
2.547928e+003,1.162001e+002
2.548893e+003,1.162623e+002
2.549857e+003,1.150089e+002
2.550821e+003,1.124196e+002
2.551785e+003,1.094461e+002
2.552750e+003,1.066620e+002
2.553714e+003,1.043739e+002
2.554678e+003,1.028727e+002
2.555642e+003,1.025383e+002
2.556607e+003,1.040522e+002
2.557571e+003,1.055564e+002
2.558535e+003,1.061365e+002
2.559499e+003,1.055749e+002
2.560464e+003,1.032953e+002
2.561428e+003,1.010889e+002
2.562392e+003,9.991992e+001
2.563356e+003,9.975060e+001
2.564321e+003,1.017608e+002
2.565285e+003,1.047620e+002
2.566249e+003,1.037855e+002
2.567213e+003,9.865042e+001
2.568177e+003,9.721762e+001
2.569142e+003,9.978922e+001
2.570106e+003,9.935135e+001
2.571070e+003,9.621187e+001
2.572034e+003,9.406238e+001
2.572999e+003,9.343184e+001
2.573963e+003,9.324655e+001
2.574927e+003,9.294066e+001
2.575891e+003,9.310153e+001
2.576855e+003,9.376920e+001
2.577820e+003,9.350444e+001
2.578784e+003,9.202260e+001
2.579748e+003,9.046011e+001
2.580712e+003,8.898282e+001
2.581677e+003,8.800432e+001
2.582641e+003,8.721693e+001
2.583605e+003,8.643979e+001
2.584569e+003,8.652896e+001
2.585534e+003,8.603665e+001
2.586498e+003,8.377570e+001
2.587462e+003,8.126889e+001
2.588426e+003,7.982062e+001
2.589391e+003,7.913155e+001
2.590355e+003,7.914218e+001
2.591319e+003,7.937958e+001
2.592283e+003,7.747655e+001
2.593248e+003,7.474216e+001
2.594212e+003,7.581902e+001
2.595176e+003,7.872218e+001
2.596140e+003,7.849292e+001
2.597104e+003,7.632947e+001
2.598069e+003,7.584320e+001
2.599033e+003,7.674336e+001
2.599997e+003,7.685309e+001
2.600961e+003,7.596967e+001
2.601926e+003,7.479799e+001
2.602890e+003,7.316505e+001
2.603854e+003,7.208635e+001
2.604818e+003,7.163329e+001
2.605782e+003,7.097783e+001
2.606747e+003,7.039363e+001
2.607711e+003,6.973293e+001
2.608675e+003,6.891414e+001
2.609639e+003,6.802071e+001
2.610604e+003,6.714981e+001
2.611568e+003,6.667627e+001
2.612532e+003,6.675150e+001
2.613496e+003,6.746616e+001
2.614461e+003,6.895982e+001
2.615425e+003,7.010994e+001
2.616389e+003,7.010997e+001
2.617353e+003,6.923746e+001
2.618318e+003,6.770053e+001
2.619282e+003,6.574548e+001
2.620246e+003,6.299718e+001
2.621210e+003,6.126419e+001
2.622175e+003,6.184151e+001
2.623139e+003,6.329167e+001
2.624103e+003,6.452950e+001
2.625067e+003,6.479816e+001
2.626031e+003,6.299196e+001
2.626996e+003,6.065114e+001
2.627960e+003,6.220073e+001
2.628924e+003,6.614706e+001
2.629888e+003,6.630685e+001
2.630853e+003,6.346483e+001
2.631817e+003,6.058678e+001
2.632781e+003,5.923416e+001
2.633745e+003,6.063040e+001
2.634709e+003,6.309239e+001
2.635674e+003,6.346843e+001
2.636638e+003,6.155539e+001
2.637602e+003,6.016853e+001
2.638566e+003,6.095547e+001
2.639531e+003,6.159972e+001
2.640495e+003,6.026416e+001
2.641459e+003,5.930432e+001
2.642423e+003,5.913489e+001
2.643388e+003,5.950362e+001
2.644352e+003,6.019873e+001
2.645316e+003,6.126588e+001
2.646280e+003,6.264877e+001
2.647245e+003,6.250352e+001
2.648209e+003,6.034132e+001
2.649173e+003,5.842572e+001
2.650137e+003,5.789114e+001
2.651102e+003,5.817967e+001
2.652066e+003,5.914528e+001
2.653030e+003,5.902916e+001
2.653994e+003,5.683403e+001
2.654958e+003,5.505862e+001
2.655923e+003,5.620978e+001
2.656887e+003,5.739200e+001
2.657851e+003,5.469052e+001
2.658815e+003,5.149844e+001
2.659780e+003,5.210202e+001
2.660744e+003,5.431329e+001
2.661708e+003,5.385979e+001
2.662672e+003,5.175549e+001
2.663636e+003,5.051778e+001
2.664601e+003,5.020137e+001
2.665565e+003,5.181543e+001
2.666529e+003,5.416986e+001
2.667493e+003,5.487953e+001
2.668458e+003,5.435777e+001
2.669422e+003,5.311700e+001
2.670386e+003,5.132642e+001
2.671350e+003,5.019765e+001
2.672315e+003,5.025955e+001
2.673279e+003,4.978615e+001
2.674243e+003,4.786290e+001
2.675207e+003,4.742291e+001
2.676172e+003,4.928096e+001
2.677136e+003,4.901921e+001
2.678100e+003,4.669353e+001
2.679064e+003,4.546791e+001
2.680029e+003,4.520811e+001
2.680993e+003,4.454494e+001
2.681957e+003,4.352411e+001
2.682921e+003,4.251904e+001
2.683885e+003,4.138243e+001
2.684850e+003,4.070583e+001
2.685814e+003,4.176971e+001
2.686778e+003,4.265167e+001
2.687742e+003,4.111809e+001
2.688707e+003,4.052437e+001
2.689671e+003,4.149467e+001
2.690635e+003,4.237321e+001
2.691599e+003,4.367816e+001
2.692563e+003,4.409259e+001
2.693528e+003,4.300540e+001
2.694492e+003,4.116255e+001
2.695456e+003,3.895370e+001
2.696420e+003,3.768144e+001
2.697385e+003,3.912854e+001
2.698349e+003,4.053490e+001
2.699313e+003,3.806200e+001
2.700277e+003,3.510388e+001
2.701242e+003,3.375650e+001
2.702206e+003,3.332103e+001
2.703170e+003,3.430345e+001
2.704134e+003,3.550446e+001
2.705099e+003,3.633084e+001
2.706063e+003,3.675653e+001
2.707027e+003,3.630473e+001
2.707991e+003,3.539751e+001
2.708956e+003,3.481404e+001
2.709920e+003,3.408324e+001
2.710884e+003,3.272246e+001
2.711848e+003,3.139554e+001
2.712813e+003,3.153923e+001
2.713777e+003,3.230861e+001
2.714741e+003,3.064160e+001
2.715705e+003,2.753827e+001
2.716669e+003,2.694885e+001
2.717634e+003,2.837943e+001
2.718598e+003,2.877309e+001
2.719562e+003,2.858730e+001
2.720526e+003,2.963638e+001
2.721490e+003,3.064658e+001
2.722455e+003,2.904805e+001
2.723419e+003,2.555440e+001
2.724383e+003,2.474831e+001
2.725347e+003,2.624907e+001
2.726312e+003,2.595703e+001
2.727276e+003,2.366270e+001
2.728240e+003,2.257959e+001
2.729204e+003,2.372255e+001
2.730169e+003,2.548308e+001
2.731133e+003,2.648439e+001
2.732097e+003,2.645125e+001
2.733061e+003,2.541472e+001
2.734026e+003,2.395760e+001
2.734990e+003,2.355023e+001
2.735954e+003,2.309390e+001
2.736918e+003,2.128490e+001
2.737883e+003,2.190987e+001
2.738847e+003,2.524866e+001
2.739811e+003,2.660416e+001
2.740775e+003,2.485979e+001
2.741740e+003,2.213313e+001
2.742704e+003,1.991557e+001
2.743668e+003,1.899321e+001
2.744632e+003,1.925595e+001
2.745596e+003,2.035521e+001
2.746561e+003,2.311501e+001
2.747525e+003,2.335835e+001
2.748489e+003,1.933925e+001
2.749453e+003,1.656258e+001
2.750417e+003,1.653905e+001
2.751382e+003,1.855850e+001
2.752346e+003,2.204361e+001
2.753310e+003,2.411131e+001
2.754274e+003,2.276978e+001
2.755239e+003,2.019241e+001
2.756203e+003,1.833255e+001
2.757167e+003,1.725481e+001
2.758131e+003,1.711378e+001
2.759096e+003,1.732925e+001
2.760060e+003,1.831241e+001
2.761024e+003,1.893289e+001
2.761988e+003,1.790125e+001
2.762953e+003,1.713187e+001
2.763917e+003,1.791742e+001
2.764881e+003,1.851520e+001
2.765845e+003,1.713460e+001
2.766810e+003,1.550134e+001
2.767774e+003,1.664812e+001
2.768738e+003,1.873514e+001
2.769702e+003,1.801872e+001
2.770667e+003,1.697951e+001
2.771631e+003,1.827031e+001
2.772595e+003,1.921806e+001
2.773559e+003,1.823619e+001
2.774523e+003,1.680983e+001
2.775488e+003,1.618602e+001
2.776452e+003,1.670964e+001
2.777416e+003,1.723308e+001
2.778380e+003,1.688190e+001
2.779344e+003,1.903189e+001
2.780309e+003,2.285989e+001
2.781273e+003,2.009061e+001
2.782237e+003,1.517863e+001
2.783201e+003,1.342657e+001
2.784166e+003,1.320219e+001
2.785130e+003,1.718071e+001
2.786094e+003,2.199225e+001
2.787058e+003,2.140103e+001
2.788023e+003,1.814502e+001
2.788987e+003,1.760504e+001
2.789951e+003,1.854134e+001
2.790915e+003,1.861852e+001
2.791880e+003,1.809619e+001
2.792844e+003,1.744385e+001
2.793808e+003,1.703529e+001
2.794772e+003,1.719962e+001
2.795737e+003,1.700899e+001
2.796701e+003,1.642509e+001
2.797665e+003,1.608061e+001
2.798629e+003,1.628389e+001
2.799594e+003,1.716167e+001
2.800558e+003,1.846805e+001
2.801522e+003,1.953584e+001
2.802486e+003,1.822189e+001
2.803450e+003,1.406195e+001
2.804415e+003,1.467705e+001
2.805379e+003,1.912511e+001
2.806343e+003,1.994627e+001
2.807307e+003,1.907491e+001
2.808271e+003,1.793993e+001
2.809236e+003,1.612761e+001
2.810200e+003,1.692297e+001
2.811164e+003,2.007404e+001
2.812128e+003,1.991716e+001
2.813093e+003,1.605515e+001
2.814057e+003,1.506139e+001
2.815021e+003,1.574316e+001
2.815985e+003,1.497878e+001
2.816950e+003,1.435835e+001
2.817914e+003,1.541731e+001
2.818878e+003,1.703635e+001
2.819842e+003,1.650281e+001
2.820807e+003,1.482425e+001
2.821771e+003,1.503940e+001
2.822735e+003,1.652177e+001
2.823699e+003,1.667867e+001
2.824664e+003,1.569336e+001
2.825628e+003,1.460355e+001
2.826592e+003,1.356218e+001
2.827556e+003,1.335988e+001
2.828521e+003,1.324895e+001
2.829485e+003,1.248082e+001
2.830449e+003,1.168510e+001
2.831413e+003,1.170459e+001
2.832377e+003,1.203079e+001
2.833342e+003,1.168203e+001
2.834306e+003,1.091806e+001
2.835270e+003,1.075693e+001
2.836234e+003,1.130457e+001
2.837198e+003,1.192284e+001
2.838163e+003,1.310497e+001
2.839127e+003,1.254493e+001
2.840091e+003,1.000447e+001
2.841055e+003,9.146423e+000
2.842020e+003,9.763855e+000
2.842984e+003,9.883675e+000
2.843948e+003,9.503006e+000
2.844912e+003,9.400879e+000
2.845877e+003,9.922173e+000
2.846841e+003,1.172174e+001
2.847805e+003,1.511666e+001
2.848769e+003,1.582463e+001
2.849734e+003,1.171799e+001
2.850698e+003,9.958961e+000
2.851662e+003,1.077942e+001
2.852626e+003,1.067783e+001
2.853591e+003,9.765137e+000
2.854555e+003,1.001422e+001
2.855519e+003,1.121566e+001
2.856483e+003,1.151708e+001
2.857448e+003,1.055875e+001
2.858412e+003,9.941544e+000
2.859376e+003,1.065225e+001
2.860340e+003,9.909050e+000
2.861304e+003,6.017006e+000
2.862269e+003,4.649750e+000
2.863233e+003,5.610252e+000
2.864197e+003,6.391708e+000
2.865161e+003,7.252098e+000
2.866125e+003,7.352005e+000
2.867090e+003,6.579918e+000
2.868054e+003,7.008324e+000
2.869018e+003,8.816833e+000
2.869982e+003,9.650688e+000
2.870947e+003,9.601982e+000
2.871911e+003,8.533577e+000
2.872875e+003,4.635826e+000
2.873839e+003,3.299019e+000
2.874804e+003,4.838020e+000
2.875768e+003,5.464806e+000
2.876732e+003,5.051201e+000
2.877696e+003,5.129532e+000
2.878661e+003,5.872871e+000
2.879625e+003,6.811974e+000
2.880589e+003,7.695724e+000
2.881553e+003,7.971519e+000
2.882518e+003,7.456055e+000
2.883482e+003,7.955635e+000
2.884446e+003,9.943024e+000
2.885410e+003,9.646301e+000
2.886375e+003,7.166252e+000
2.887339e+003,6.862099e+000
2.888303e+003,8.586723e+000
2.889267e+003,9.123871e+000
2.890231e+003,8.507767e+000
2.891196e+003,9.754593e+000
2.892160e+003,1.297548e+001
2.893124e+003,1.358768e+001
2.894088e+003,1.052535e+001
2.895052e+003,9.773705e+000
2.896017e+003,1.151491e+001
2.896981e+003,1.322495e+001
2.897945e+003,1.468020e+001
2.898909e+003,1.466023e+001
2.899874e+003,1.378646e+001
2.900838e+003,1.458382e+001
2.901802e+003,1.660077e+001
2.902766e+003,1.683044e+001
2.903731e+003,1.513214e+001
2.904695e+003,1.480128e+001
2.905659e+003,1.596848e+001
2.906623e+003,1.709420e+001
2.907588e+003,1.816183e+001
2.908552e+003,1.856358e+001
2.909516e+003,1.873542e+001
2.910480e+003,2.082242e+001
2.911445e+003,2.369815e+001
2.912409e+003,2.385655e+001
2.913373e+003,2.220112e+001
2.914337e+003,2.286583e+001
2.915302e+003,2.556118e+001
2.916266e+003,2.660746e+001
2.917230e+003,2.613086e+001
2.918194e+003,2.532468e+001
2.919158e+003,2.453610e+001
2.920123e+003,2.587465e+001
2.921087e+003,2.812296e+001
2.922051e+003,2.841535e+001
2.923015e+003,2.760962e+001
2.923979e+003,2.744580e+001
2.924944e+003,2.808472e+001
2.925908e+003,2.936990e+001
2.926872e+003,3.108607e+001
2.927836e+003,3.264052e+001
2.928801e+003,3.407906e+001
2.929765e+003,3.589762e+001
2.930729e+003,3.750655e+001
2.931693e+003,3.709480e+001
2.932658e+003,3.612820e+001
2.933622e+003,3.686345e+001
2.934586e+003,3.842603e+001
2.935550e+003,3.945386e+001
2.936515e+003,4.008588e+001
2.937479e+003,4.046786e+001
2.938443e+003,4.089844e+001
2.939407e+003,4.234695e+001
2.940372e+003,4.393009e+001
2.941336e+003,4.322301e+001
2.942300e+003,4.209231e+001
2.943264e+003,4.301203e+001
2.944229e+003,4.454345e+001
2.945193e+003,4.544868e+001
2.946157e+003,4.580631e+001
2.947121e+003,4.546150e+001
2.948085e+003,4.561211e+001
2.949050e+003,4.784345e+001
2.950014e+003,5.027438e+001
2.950978e+003,4.957355e+001
2.951942e+003,4.814233e+001
2.952906e+003,4.808752e+001
2.953871e+003,4.919722e+001
2.954835e+003,5.333471e+001
2.955799e+003,5.539201e+001
2.956763e+003,5.162675e+001
2.957728e+003,4.913658e+001
2.958692e+003,5.254335e+001
2.959656e+003,5.685407e+001
2.960620e+003,5.766529e+001
2.961585e+003,5.737154e+001
2.962549e+003,5.817154e+001
2.963513e+003,5.874788e+001
2.964477e+003,5.784779e+001
2.965442e+003,5.749947e+001
2.966406e+003,5.824975e+001
2.967370e+003,5.982967e+001
2.968334e+003,6.217841e+001
2.969299e+003,6.382246e+001
2.970263e+003,6.403593e+001
2.971227e+003,6.334627e+001
2.972191e+003,6.194432e+001
2.973156e+003,6.057787e+001
2.974120e+003,5.844460e+001
2.975084e+003,5.891685e+001
2.976048e+003,6.334439e+001
2.977012e+003,6.598671e+001
2.977977e+003,6.600711e+001
2.978941e+003,6.608081e+001
2.979905e+003,6.684624e+001
2.980869e+003,6.720464e+001
2.981833e+003,6.692283e+001
2.982798e+003,6.757905e+001
2.983762e+003,7.004552e+001
2.984726e+003,7.115947e+001
2.985690e+003,7.033007e+001
2.986655e+003,7.055096e+001
2.987619e+003,7.177592e+001
2.988583e+003,7.194632e+001
2.989547e+003,7.116299e+001
2.990512e+003,7.072143e+001
2.991476e+003,7.073402e+001
2.992440e+003,7.020032e+001
2.993404e+003,6.942590e+001
2.994369e+003,7.180330e+001
2.995333e+003,7.709898e+001
2.996297e+003,7.852821e+001
2.997261e+003,7.683125e+001
2.998226e+003,7.625137e+001
2.999190e+003,7.649445e+001
3.000154e+003,7.633389e+001
3.001118e+003,7.625117e+001
3.002083e+003,7.763077e+001
3.003047e+003,7.969054e+001
3.004011e+003,8.071280e+001
3.004975e+003,8.095918e+001
3.005939e+003,8.092574e+001
3.006904e+003,8.086392e+001
3.007868e+003,8.172004e+001
3.008832e+003,8.271417e+001
3.009796e+003,8.209001e+001
3.010760e+003,8.167010e+001
3.011725e+003,8.422928e+001
3.012689e+003,8.680453e+001
3.013653e+003,8.685311e+001
3.014617e+003,8.627150e+001
3.015582e+003,8.697643e+001
3.016546e+003,8.798581e+001
3.017510e+003,8.802517e+001
3.018474e+003,8.778904e+001
3.019439e+003,8.794896e+001
3.020403e+003,8.801815e+001
3.021367e+003,8.755843e+001
3.022331e+003,8.708504e+001
3.023296e+003,8.653258e+001
3.024260e+003,8.764783e+001
3.025224e+003,9.118133e+001
3.026188e+003,9.488757e+001
3.027153e+003,9.742989e+001
3.028117e+003,9.893908e+001
3.029081e+003,9.911086e+001
3.030045e+003,9.893771e+001
3.031010e+003,9.833537e+001
3.031974e+003,9.812543e+001
3.032938e+003,9.840258e+001
3.033902e+003,1.005755e+002
3.034866e+003,1.042155e+002
3.035831e+003,1.051088e+002
3.036795e+003,1.027982e+002
3.037759e+003,1.025118e+002
3.038723e+003,1.058858e+002
3.039688e+003,1.070734e+002
3.040652e+003,1.056002e+002
3.041616e+003,1.037215e+002
3.042580e+003,1.018709e+002
3.043544e+003,1.030456e+002
3.044509e+003,1.061743e+002
3.045473e+003,1.081998e+002
3.046437e+003,1.092086e+002
3.047401e+003,1.109822e+002
3.048366e+003,1.126582e+002
3.049330e+003,1.111816e+002
3.050294e+003,1.079156e+002
3.051258e+003,1.079008e+002
3.052223e+003,1.102323e+002
3.053187e+003,1.140559e+002
3.054151e+003,1.175803e+002
3.055115e+003,1.182605e+002
3.056080e+003,1.178550e+002
3.057044e+003,1.180681e+002
3.058008e+003,1.185373e+002
3.058972e+003,1.189709e+002
3.059937e+003,1.190175e+002
3.060901e+003,1.179838e+002
3.061865e+003,1.172578e+002
3.062829e+003,1.187423e+002
3.063793e+003,1.205162e+002
3.064758e+003,1.220236e+002
3.065722e+003,1.224370e+002
3.066686e+003,1.211697e+002
3.067650e+003,1.209184e+002
3.068615e+003,1.226562e+002
3.069579e+003,1.244155e+002
3.070543e+003,1.251836e+002
3.071507e+003,1.254666e+002
3.072471e+003,1.252289e+002
3.073436e+003,1.254784e+002
3.074400e+003,1.264208e+002
3.075364e+003,1.275676e+002
3.076328e+003,1.288690e+002
3.077293e+003,1.302425e+002
3.078257e+003,1.314709e+002
3.079221e+003,1.313571e+002
3.080185e+003,1.303497e+002
3.081150e+003,1.315050e+002
3.082114e+003,1.347706e+002
3.083078e+003,1.346013e+002
3.084042e+003,1.313719e+002
3.085007e+003,1.302898e+002
3.085971e+003,1.310184e+002
3.086935e+003,1.336141e+002
3.087899e+003,1.364162e+002
3.088864e+003,1.365178e+002
3.089828e+003,1.355351e+002
3.090792e+003,1.357457e+002
3.091756e+003,1.371086e+002
3.092720e+003,1.399359e+002
3.093685e+003,1.421595e+002
3.094649e+003,1.387639e+002
3.095613e+003,1.348886e+002
3.096577e+003,1.372457e+002
3.097542e+003,1.400677e+002
3.098506e+003,1.392208e+002
3.099470e+003,1.385401e+002
3.100434e+003,1.393703e+002
3.101398e+003,1.404496e+002
3.102363e+003,1.411308e+002
3.103327e+003,1.420787e+002
3.104291e+003,1.437448e+002
3.105255e+003,1.454860e+002
3.106220e+003,1.479934e+002
3.107184e+003,1.481300e+002
3.108148e+003,1.453341e+002
3.109112e+003,1.432489e+002
3.110077e+003,1.424702e+002
3.111041e+003,1.441429e+002
3.112005e+003,1.474556e+002
3.112969e+003,1.492025e+002
3.113934e+003,1.487710e+002
3.114898e+003,1.469534e+002
3.115862e+003,1.442063e+002
3.116826e+003,1.448847e+002
3.117791e+003,1.480901e+002
3.118755e+003,1.498074e+002
3.119719e+003,1.505659e+002
3.120683e+003,1.511345e+002
3.121647e+003,1.518672e+002
3.122612e+003,1.541193e+002
3.123576e+003,1.552642e+002
3.124540e+003,1.520794e+002
3.125504e+003,1.485387e+002
3.126469e+003,1.505965e+002
3.127433e+003,1.547529e+002
3.128397e+003,1.575619e+002
3.129361e+003,1.597951e+002
3.130325e+003,1.620044e+002
3.131290e+003,1.635289e+002
3.132254e+003,1.642073e+002
3.133218e+003,1.639814e+002
3.134182e+003,1.628384e+002
3.135147e+003,1.602233e+002
3.136111e+003,1.559078e+002
3.137075e+003,1.556637e+002
3.138039e+003,1.651273e+002
3.139004e+003,1.683877e+002
3.139968e+003,1.643134e+002
3.140932e+003,1.612716e+002
3.141896e+003,1.601623e+002
3.142861e+003,1.630068e+002
3.143825e+003,1.680818e+002
3.144789e+003,1.706526e+002
3.145753e+003,1.706056e+002
3.146718e+003,1.701874e+002
3.147682e+003,1.696691e+002
3.148646e+003,1.696299e+002
3.149610e+003,1.700415e+002
3.150574e+003,1.708683e+002
3.151539e+003,1.720609e+002
3.152503e+003,1.740579e+002
3.153467e+003,1.757436e+002
3.154431e+003,1.763177e+002
3.155396e+003,1.759957e+002
3.156360e+003,1.747879e+002
3.157324e+003,1.744996e+002
3.158288e+003,1.770140e+002
3.159252e+003,1.788504e+002
3.160217e+003,1.756015e+002
3.161181e+003,1.746813e+002
3.162145e+003,1.790480e+002
3.163109e+003,1.802059e+002
3.164074e+003,1.772665e+002
3.165038e+003,1.775534e+002
3.166002e+003,1.816956e+002
3.166966e+003,1.838185e+002
3.167931e+003,1.827976e+002
3.168895e+003,1.833103e+002
3.169859e+003,1.856766e+002
3.170823e+003,1.870894e+002
3.171788e+003,1.876052e+002
3.172752e+003,1.867530e+002
3.173716e+003,1.858405e+002
3.174680e+003,1.881638e+002
3.175645e+003,1.912364e+002
3.176609e+003,1.909802e+002
3.177573e+003,1.897217e+002
3.178537e+003,1.896718e+002
3.179501e+003,1.907415e+002
3.180466e+003,1.935009e+002
3.181430e+003,1.955050e+002
3.182394e+003,1.931000e+002
3.183358e+003,1.911223e+002
3.184323e+003,1.917472e+002
3.185287e+003,1.931417e+002
3.186251e+003,1.949082e+002
3.187215e+003,1.947533e+002
3.188179e+003,1.923604e+002
3.189144e+003,1.915900e+002
3.190108e+003,1.938958e+002
3.191072e+003,1.949231e+002
3.192036e+003,1.937419e+002
3.193001e+003,1.932588e+002
3.193965e+003,1.935990e+002
3.194929e+003,1.964908e+002
3.195893e+003,2.004405e+002
3.196858e+003,2.024360e+002
3.197822e+003,2.025640e+002
3.198786e+003,2.008904e+002
3.199750e+003,1.991927e+002
3.200715e+003,2.000328e+002
3.201679e+003,2.017593e+002
3.202643e+003,2.010766e+002
3.203607e+003,2.000879e+002
3.204572e+003,2.014168e+002
3.205536e+003,2.022774e+002
3.206500e+003,2.006471e+002
3.207464e+003,2.008837e+002
3.208428e+003,2.043407e+002
3.209393e+003,2.064061e+002
3.210357e+003,2.052760e+002
3.211321e+003,2.048897e+002
3.212285e+003,2.074291e+002
3.213250e+003,2.067609e+002
3.214214e+003,2.014603e+002
3.215178e+003,2.017530e+002
3.216142e+003,2.064528e+002
3.217106e+003,2.089820e+002
3.218071e+003,2.095342e+002
3.219035e+003,2.098118e+002
3.219999e+003,2.101930e+002
3.220963e+003,2.106726e+002
3.221928e+003,2.116563e+002
3.222892e+003,2.142231e+002
3.223856e+003,2.170287e+002
3.224820e+003,2.180553e+002
3.225785e+003,2.178958e+002
3.226749e+003,2.164988e+002
3.227713e+003,2.146214e+002
3.228677e+003,2.121246e+002
3.229642e+003,2.122028e+002
3.230606e+003,2.158137e+002
3.231570e+003,2.186572e+002
3.232534e+003,2.186997e+002
3.233499e+003,2.193298e+002
3.234463e+003,2.222945e+002
3.235427e+003,2.229541e+002
3.236391e+003,2.214448e+002
3.237355e+003,2.214314e+002
3.238320e+003,2.226448e+002
3.239284e+003,2.239154e+002
3.240248e+003,2.249693e+002
3.241212e+003,2.258398e+002
3.242177e+003,2.261954e+002
3.243141e+003,2.254809e+002
3.244105e+003,2.240493e+002
3.245069e+003,2.218524e+002
3.246033e+003,2.202543e+002
3.246998e+003,2.205889e+002
3.247962e+003,2.223227e+002
3.248926e+003,2.256909e+002
3.249890e+003,2.283125e+002
3.250855e+003,2.295175e+002
3.251819e+003,2.313153e+002
3.252783e+003,2.343290e+002
3.253747e+003,2.361893e+002
3.254712e+003,2.358984e+002
3.255676e+003,2.347984e+002
3.256640e+003,2.328933e+002
3.257604e+003,2.324673e+002
3.258569e+003,2.333801e+002
3.259533e+003,2.357987e+002
3.260497e+003,2.384654e+002
3.261461e+003,2.396636e+002
3.262426e+003,2.390678e+002
3.263390e+003,2.359842e+002
3.264354e+003,2.336467e+002
3.265318e+003,2.374138e+002
3.266282e+003,2.421834e+002
3.267247e+003,2.422493e+002
3.268211e+003,2.418688e+002
3.269175e+003,2.425818e+002
3.270139e+003,2.439841e+002
3.271104e+003,2.459692e+002
3.272068e+003,2.478605e+002
3.273032e+003,2.493303e+002
3.273996e+003,2.498286e+002
3.274960e+003,2.491766e+002
3.275925e+003,2.478588e+002
3.276889e+003,2.459878e+002
3.277853e+003,2.464517e+002
3.278817e+003,2.483319e+002
3.279782e+003,2.495283e+002
3.280746e+003,2.499333e+002
3.281710e+003,2.483057e+002
3.282674e+003,2.477792e+002
3.283639e+003,2.511363e+002
3.284603e+003,2.556040e+002
3.285567e+003,2.588491e+002
3.286531e+003,2.600757e+002
3.287496e+003,2.558677e+002
3.288460e+003,2.548571e+002
3.289424e+003,2.607760e+002
3.290388e+003,2.631257e+002
3.291353e+003,2.611568e+002
3.292317e+003,2.608622e+002
3.293281e+003,2.627168e+002
3.294245e+003,2.639258e+002
3.295209e+003,2.636751e+002
3.296174e+003,2.611915e+002
3.297138e+003,2.579500e+002
3.298102e+003,2.613846e+002
3.299066e+003,2.673896e+002
3.300031e+003,2.681794e+002
3.300995e+003,2.672935e+002
3.301959e+003,2.679142e+002
3.302923e+003,2.684566e+002
3.303887e+003,2.681606e+002
3.304852e+003,2.683498e+002
3.305816e+003,2.697720e+002
3.306780e+003,2.699548e+002
3.307744e+003,2.661138e+002
3.308709e+003,2.670281e+002
3.309673e+003,2.742024e+002
3.310637e+003,2.761925e+002
3.311601e+003,2.737028e+002
3.312566e+003,2.709140e+002
3.313530e+003,2.693419e+002
3.314494e+003,2.718943e+002
3.315458e+003,2.757187e+002
3.316423e+003,2.758950e+002
3.317387e+003,2.747444e+002
3.318351e+003,2.767062e+002
3.319315e+003,2.789398e+002
3.320280e+003,2.779037e+002
3.321244e+003,2.772886e+002
3.322208e+003,2.787474e+002
3.323172e+003,2.790225e+002
3.324136e+003,2.775062e+002
3.325101e+003,2.767651e+002
3.326065e+003,2.777499e+002
3.327029e+003,2.808911e+002
3.327993e+003,2.862589e+002
3.328958e+003,2.901527e+002
3.329922e+003,2.924458e+002
3.330886e+003,2.914736e+002
3.331850e+003,2.888660e+002
3.332814e+003,2.862435e+002
3.333779e+003,2.852208e+002
3.334743e+003,2.874003e+002
3.335707e+003,2.906526e+002
3.336671e+003,2.935786e+002
3.337636e+003,2.952509e+002
3.338600e+003,2.942920e+002
3.339564e+003,2.943886e+002
3.340528e+003,2.986539e+002
3.341493e+003,3.001422e+002
3.342457e+003,2.987232e+002
3.343421e+003,2.986517e+002
3.344385e+003,2.998653e+002
3.345350e+003,3.000672e+002
3.346314e+003,2.996860e+002
3.347278e+003,3.009354e+002
3.348242e+003,3.028565e+002
3.349207e+003,3.028684e+002
3.350171e+003,3.028213e+002
3.351135e+003,3.069997e+002
3.352099e+003,3.104609e+002
3.353063e+003,3.097042e+002
3.354028e+003,3.069078e+002
3.354992e+003,3.025881e+002
3.355956e+003,3.021102e+002
3.356920e+003,3.066859e+002
3.357885e+003,3.100323e+002
3.358849e+003,3.100497e+002
3.359813e+003,3.123527e+002
3.360777e+003,3.168352e+002
3.361741e+003,3.163878e+002
3.362706e+003,3.136755e+002
3.363670e+003,3.137125e+002
3.364634e+003,3.158806e+002
3.365598e+003,3.207937e+002
3.366563e+003,3.228882e+002
3.367527e+003,3.180600e+002
3.368491e+003,3.132494e+002
3.369455e+003,3.142854e+002
3.370420e+003,3.167247e+002
3.371384e+003,3.189566e+002
3.372348e+003,3.215804e+002
3.373312e+003,3.244822e+002
3.374277e+003,3.231268e+002
3.375241e+003,3.190652e+002
3.376205e+003,3.181141e+002
3.377169e+003,3.199943e+002
3.378134e+003,3.217802e+002
3.379098e+003,3.232279e+002
3.380062e+003,3.239957e+002
3.381026e+003,3.244733e+002
3.381990e+003,3.248890e+002
3.382955e+003,3.257206e+002
3.383919e+003,3.271666e+002
3.384883e+003,3.296896e+002
3.385847e+003,3.332088e+002
3.386812e+003,3.340016e+002
3.387776e+003,3.315142e+002
3.388740e+003,3.293870e+002
3.389704e+003,3.285010e+002
3.390668e+003,3.276371e+002
3.391633e+003,3.269797e+002
3.392597e+003,3.278055e+002
3.393561e+003,3.294509e+002
3.394525e+003,3.315599e+002
3.395490e+003,3.330723e+002
3.396454e+003,3.333032e+002
3.397418e+003,3.330104e+002
3.398382e+003,3.326256e+002
3.399347e+003,3.322067e+002
3.400311e+003,3.315300e+002
3.401275e+003,3.328375e+002
3.402239e+003,3.371858e+002
3.403204e+003,3.391164e+002
3.404168e+003,3.389033e+002
3.405132e+003,3.371711e+002
3.406096e+003,3.356748e+002
3.407061e+003,3.380182e+002
3.408025e+003,3.421646e+002
3.408989e+003,3.460445e+002
3.409953e+003,3.473964e+002
3.410917e+003,3.418678e+002
3.411882e+003,3.373868e+002
3.412846e+003,3.415245e+002
3.413810e+003,3.445309e+002
3.414774e+003,3.450479e+002
3.415739e+003,3.432001e+002
3.416703e+003,3.401069e+002
3.417667e+003,3.399904e+002
3.418631e+003,3.425831e+002
3.419595e+003,3.441326e+002
3.420560e+003,3.447253e+002
3.421524e+003,3.448472e+002
3.422488e+003,3.447486e+002
3.423452e+003,3.448146e+002
3.424417e+003,3.448590e+002
3.425381e+003,3.444716e+002
3.426345e+003,3.451284e+002
3.427309e+003,3.471281e+002
3.428274e+003,3.482565e+002
3.429238e+003,3.479204e+002
3.430202e+003,3.478377e+002
3.431166e+003,3.484142e+002
3.432131e+003,3.501082e+002
3.433095e+003,3.524711e+002
3.434059e+003,3.534036e+002
3.435023e+003,3.538639e+002
3.435988e+003,3.551812e+002
3.436952e+003,3.567638e+002
3.437916e+003,3.582688e+002
3.438880e+003,3.595673e+002
3.439844e+003,3.605654e+002
3.440809e+003,3.593630e+002
3.441773e+003,3.532346e+002
3.442737e+003,3.531389e+002
3.443701e+003,3.595992e+002
3.444666e+003,3.622656e+002
3.445630e+003,3.622198e+002
3.446594e+003,3.635308e+002
3.447558e+003,3.649961e+002
3.448522e+003,3.641279e+002
3.449487e+003,3.626706e+002
3.450451e+003,3.621878e+002
3.451415e+003,3.630399e+002
3.452379e+003,3.667308e+002
3.453344e+003,3.692001e+002
3.454308e+003,3.688500e+002
3.455272e+003,3.703068e+002
3.456236e+003,3.734962e+002
3.457201e+003,3.755932e+002
3.458165e+003,3.766868e+002
3.459129e+003,3.784905e+002
3.460093e+003,3.804714e+002
3.461058e+003,3.817194e+002
3.462022e+003,3.815203e+002
3.462986e+003,3.763449e+002
3.463950e+003,3.728227e+002
3.464915e+003,3.771078e+002
3.465879e+003,3.811348e+002
3.466843e+003,3.836771e+002
3.467807e+003,3.854912e+002
3.468771e+003,3.866633e+002
3.469736e+003,3.859333e+002
3.470700e+003,3.841129e+002
3.471664e+003,3.858777e+002
3.472628e+003,3.900138e+002
3.473593e+003,3.935667e+002
3.474557e+003,3.963086e+002
3.475521e+003,3.978051e+002
3.476485e+003,3.984911e+002
3.477449e+003,3.985059e+002
3.478414e+003,3.989194e+002
3.479378e+003,3.999682e+002
3.480342e+003,3.998949e+002
3.481306e+003,3.982726e+002
3.482271e+003,4.002134e+002
3.483235e+003,4.051188e+002
3.484199e+003,4.054626e+002
3.485163e+003,4.041307e+002
3.486128e+003,4.058877e+002
3.487092e+003,4.085474e+002
3.488056e+003,4.105508e+002
3.489020e+003,4.111859e+002
3.489985e+003,4.101555e+002
3.490949e+003,4.097152e+002
3.491913e+003,4.111407e+002
3.492877e+003,4.126602e+002
3.493842e+003,4.141238e+002
3.494806e+003,4.133279e+002
3.495770e+003,4.118069e+002
3.496734e+003,4.137496e+002
3.497698e+003,4.169661e+002
3.498663e+003,4.188404e+002
3.499627e+003,4.197214e+002
3.500591e+003,0.000000e+000
