9.974011e+001,4.410396e+002
1.007043e+002,4.439982e+002
1.016686e+002,4.462267e+002
1.026328e+002,4.468584e+002
1.035970e+002,4.477782e+002
1.045613e+002,4.506178e+002
1.055255e+002,4.538281e+002
1.064897e+002,4.541914e+002
1.074540e+002,4.484204e+002
1.084182e+002,4.425042e+002
1.093824e+002,4.357478e+002
1.103467e+002,4.285667e+002
1.113109e+002,4.229226e+002
1.122751e+002,4.240602e+002
1.132394e+002,4.267050e+002
1.142036e+002,4.280187e+002
1.151678e+002,4.263992e+002
1.161321e+002,4.229911e+002
1.170963e+002,4.217815e+002
1.180605e+002,4.215895e+002
1.190248e+002,4.209926e+002
1.199890e+002,4.186765e+002
1.209532e+002,4.147310e+002
1.219175e+002,4.119681e+002
1.228817e+002,4.111165e+002
1.238459e+002,4.110176e+002
1.248102e+002,4.093718e+002
1.257744e+002,4.021930e+002
1.267386e+002,3.975195e+002
1.277029e+002,3.972911e+002
1.286671e+002,4.005419e+002
1.296313e+002,4.030007e+002
1.305956e+002,4.015806e+002
1.315598e+002,3.988121e+002
1.325240e+002,3.950196e+002
1.334883e+002,3.906967e+002
1.344525e+002,3.868541e+002
1.354167e+002,3.853265e+002
1.363810e+002,3.851980e+002
1.373452e+002,3.861127e+002
1.383094e+002,3.878403e+002
1.392737e+002,3.908327e+002
1.402379e+002,3.895894e+002
1.412021e+002,3.816138e+002
1.421664e+002,3.714113e+002
1.431306e+002,3.659446e+002
1.440948e+002,3.709495e+002
1.450591e+002,3.747787e+002
1.460233e+002,3.757946e+002
1.469875e+002,3.744730e+002
1.479518e+002,3.726974e+002
1.489160e+002,3.713863e+002
1.498802e+002,3.699266e+002
1.508445e+002,3.685555e+002
1.518087e+002,3.674388e+002
1.527729e+002,3.666957e+002
1.537372e+002,3.657205e+002
1.547014e+002,3.640574e+002
1.556656e+002,3.614874e+002
1.566299e+002,3.579657e+002
1.575941e+002,3.536872e+002
1.585583e+002,3.514350e+002
1.595226e+002,3.517264e+002
1.604868e+002,3.529150e+002
1.614510e+002,3.532875e+002
1.624153e+002,3.516273e+002
1.633795e+002,3.498941e+002
1.643438e+002,3.491098e+002
1.653080e+002,3.487549e+002
1.662722e+002,3.478825e+002
1.672365e+002,3.449512e+002
1.682007e+002,3.420410e+002
1.691649e+002,3.402434e+002
1.701292e+002,3.396202e+002
1.710934e+002,3.398005e+002
1.720576e+002,3.402308e+002
1.730219e+002,3.405485e+002
1.739861e+002,3.403412e+002
1.749503e+002,3.392687e+002
1.759146e+002,3.370368e+002
1.768788e+002,3.336640e+002
1.778430e+002,3.295492e+002
1.788073e+002,3.264365e+002
1.797715e+002,3.256436e+002
1.807357e+002,3.282106e+002
1.817000e+002,3.299524e+002
1.826642e+002,3.291090e+002
1.836284e+002,3.273562e+002
1.845927e+002,3.260350e+002
1.855569e+002,3.261700e+002
1.865211e+002,3.257145e+002
1.874854e+002,3.242310e+002
1.884496e+002,3.222383e+002
1.894138e+002,3.201865e+002
1.903781e+002,3.183774e+002
1.913423e+002,3.169588e+002
1.923065e+002,3.156544e+002
1.932708e+002,3.141829e+002
1.942350e+002,3.125796e+002
1.951992e+002,3.117740e+002
1.961635e+002,3.128116e+002
1.971277e+002,3.137936e+002
1.980919e+002,3.147242e+002
1.990562e+002,3.156240e+002
2.000204e+002,3.157270e+002
2.009846e+002,3.140438e+002
2.019489e+002,3.121553e+002
2.029131e+002,3.105095e+002
2.038773e+002,3.093180e+002
2.048416e+002,3.086210e+002
2.058058e+002,3.082976e+002
2.067700e+002,3.082895e+002
2.077343e+002,3.087670e+002
2.086985e+002,3.098383e+002
2.096627e+002,3.111185e+002
2.106270e+002,3.111967e+002
2.115912e+002,3.103352e+002
2.125554e+002,3.093425e+002
2.135197e+002,3.091660e+002
2.144839e+002,3.104882e+002
2.154481e+002,3.100264e+002
2.164124e+002,3.067751e+002
2.173766e+002,3.025717e+002
2.183408e+002,3.003127e+002
2.193051e+002,3.023956e+002
2.202693e+002,3.038533e+002
2.212335e+002,3.033287e+002
2.221978e+002,3.012610e+002
2.231620e+002,2.988496e+002
2.241262e+002,2.972756e+002
2.250904e+002,2.966543e+002
2.260547e+002,2.967968e+002
2.270189e+002,2.974297e+002
2.279831e+002,2.982162e+002
2.289474e+002,2.991517e+002
2.299116e+002,3.003640e+002
2.308758e+002,3.005273e+002
2.318401e+002,2.989295e+002
2.328043e+002,2.955044e+002
2.337685e+002,2.942747e+002
2.347328e+002,2.959173e+002
2.356970e+002,2.971996e+002
2.366612e+002,2.967849e+002
2.376255e+002,2.944160e+002
2.385897e+002,2.924818e+002
2.395539e+002,2.917439e+002
2.405182e+002,2.916338e+002
2.414824e+002,2.919009e+002
2.424466e+002,2.924147e+002
2.434109e+002,2.932007e+002
2.443751e+002,2.941839e+002
2.453393e+002,2.951006e+002
2.463036e+002,2.957540e+002
2.472678e+002,2.960081e+002
2.482320e+002,2.960108e+002
2.491963e+002,2.956262e+002
2.501605e+002,2.944114e+002
2.511247e+002,2.930942e+002
2.520890e+002,2.929327e+002
2.530532e+002,2.949878e+002
2.540174e+002,2.968325e+002
2.549817e+002,2.988544e+002
2.559459e+002,3.009260e+002
2.569102e+002,3.026408e+002
2.578744e+002,3.029153e+002
2.588386e+002,3.022478e+002
2.598029e+002,3.008032e+002
2.607671e+002,2.992478e+002
2.617313e+002,2.986327e+002
2.626956e+002,3.014695e+002
2.636598e+002,3.055081e+002
2.646240e+002,3.070738e+002
2.655883e+002,3.053356e+002
2.665525e+002,3.010958e+002
2.675167e+002,2.989739e+002
2.684810e+002,2.997404e+002
2.694452e+002,3.012128e+002
2.704094e+002,3.033478e+002
2.713737e+002,3.062040e+002
2.723379e+002,3.077654e+002
2.733021e+002,3.067709e+002
2.742664e+002,3.051071e+002
2.752306e+002,3.029290e+002
2.761948e+002,3.004482e+002
2.771591e+002,2.992224e+002
2.781233e+002,3.018999e+002
2.790875e+002,3.056473e+002
2.800518e+002,3.085635e+002
2.810160e+002,3.095310e+002
2.819802e+002,3.091146e+002
2.829445e+002,3.096417e+002
2.839087e+002,3.107810e+002
2.848729e+002,3.114997e+002
2.858372e+002,3.109248e+002
2.868014e+002,3.086026e+002
2.877656e+002,3.078519e+002
2.887299e+002,3.087206e+002
2.896941e+002,3.100298e+002
2.906583e+002,3.112260e+002
2.916226e+002,3.129217e+002
2.925868e+002,3.136906e+002
2.935510e+002,3.125876e+002
2.945153e+002,3.109832e+002
2.954795e+002,3.100066e+002
2.964437e+002,3.103423e+002
2.974080e+002,3.111139e+002
2.983722e+002,3.119908e+002
2.993364e+002,3.129478e+002
3.003007e+002,3.136389e+002
3.012649e+002,3.134941e+002
3.022291e+002,3.124258e+002
3.031934e+002,3.127125e+002
3.041576e+002,3.147622e+002
3.051218e+002,3.175861e+002
3.060861e+002,3.193848e+002
3.070503e+002,3.184563e+002
3.080145e+002,3.177298e+002
3.089788e+002,3.180544e+002
3.099430e+002,3.190458e+002
3.109072e+002,3.199234e+002
3.118715e+002,3.204345e+002
3.128357e+002,3.209367e+002
3.137999e+002,3.208579e+002
3.147642e+002,3.201266e+002
3.157284e+002,3.188707e+002
3.166926e+002,3.173612e+002
3.176569e+002,3.166664e+002
3.186211e+002,3.177369e+002
3.195853e+002,3.204484e+002
3.205496e+002,3.240727e+002
3.215138e+002,3.270394e+002
3.224780e+002,3.292312e+002
3.234423e+002,3.298883e+002
3.244065e+002,3.281539e+002
3.253707e+002,3.247157e+002
3.263350e+002,3.221584e+002
3.272992e+002,3.215442e+002
3.282634e+002,3.217029e+002
3.292277e+002,3.227467e+002
3.301919e+002,3.243799e+002
3.311561e+002,3.259466e+002
3.321204e+002,3.265240e+002
3.330846e+002,3.268271e+002
3.340488e+002,3.275633e+002
3.350131e+002,3.286453e+002
3.359773e+002,3.294801e+002
3.369415e+002,3.284377e+002
3.379058e+002,3.262647e+002
3.388700e+002,3.253004e+002
3.398342e+002,3.263220e+002
3.407985e+002,3.289735e+002
3.417627e+002,3.306875e+002
3.427269e+002,3.296289e+002
3.436912e+002,3.288221e+002
3.446554e+002,3.290023e+002
3.456196e+002,3.302505e+002
3.465839e+002,3.320006e+002
3.475481e+002,3.347682e+002
3.485123e+002,3.375642e+002
3.494765e+002,3.399746e+002
3.504408e+002,3.416758e+002
3.514050e+002,3.424598e+002
3.523692e+002,3.417578e+002
3.533335e+002,3.406672e+002
3.542977e+002,3.402575e+002
3.552619e+002,3.408702e+002
3.562262e+002,3.422379e+002
3.571904e+002,3.426228e+002
3.581546e+002,3.414732e+002
3.591189e+002,3.402891e+002
3.600831e+002,3.391315e+002
3.610473e+002,3.379516e+002
3.620116e+002,3.374872e+002
3.629758e+002,3.394345e+002
3.639400e+002,3.410116e+002
3.649043e+002,3.410842e+002
3.658685e+002,3.397414e+002
3.668327e+002,3.385980e+002
3.677970e+002,3.395037e+002
3.687612e+002,3.411138e+002
3.697254e+002,3.429795e+002
3.706897e+002,3.448315e+002
3.716539e+002,3.465001e+002
3.726181e+002,3.473572e+002
3.735824e+002,3.473279e+002
3.745466e+002,3.471258e+002
3.755108e+002,3.471044e+002
3.764751e+002,3.474314e+002
3.774393e+002,3.480339e+002
3.784035e+002,3.494505e+002
3.793678e+002,3.500696e+002
3.803320e+002,3.490970e+002
3.812962e+002,3.469299e+002
3.822605e+002,3.457173e+002
3.832247e+002,3.473506e+002
3.841889e+002,3.491180e+002
3.851532e+002,3.501763e+002
3.861174e+002,3.503856e+002
3.870816e+002,3.502012e+002
3.880459e+002,3.502575e+002
3.890101e+002,3.502991e+002
3.899743e+002,3.498612e+002
3.909386e+002,3.490252e+002
3.919028e+002,3.483474e+002
3.928670e+002,3.494691e+002
3.938313e+002,3.527458e+002
3.947955e+002,3.549436e+002
3.957597e+002,3.553987e+002
3.967240e+002,3.544596e+002
3.976882e+002,3.534357e+002
3.986524e+002,3.516564e+002
3.996167e+002,3.510278e+002
4.005809e+002,3.522639e+002
4.015451e+002,3.545946e+002
4.025094e+002,3.563248e+002
4.034736e+002,3.562360e+002
4.044378e+002,3.558488e+002
4.054021e+002,3.555064e+002
4.063663e+002,3.552807e+002
4.073305e+002,3.553075e+002
4.082948e+002,3.561042e+002
4.092590e+002,3.575581e+002
4.102232e+002,3.583751e+002
4.111875e+002,3.583024e+002
4.121517e+002,3.575616e+002
4.131159e+002,3.567956e+002
4.140802e+002,3.562632e+002
4.150444e+002,3.569972e+002
4.160086e+002,3.595222e+002
4.169729e+002,3.628712e+002
4.179371e+002,3.654431e+002
4.189013e+002,3.655160e+002
4.198656e+002,3.645764e+002
4.208298e+002,3.638931e+002
4.217940e+002,3.634150e+002
4.227583e+002,3.630223e+002
4.237225e+002,3.627610e+002
4.246867e+002,3.628503e+002
4.256510e+002,3.619681e+002
4.266152e+002,3.601122e+002
4.275794e+002,3.587534e+002
4.285437e+002,3.599888e+002
4.295079e+002,3.652691e+002
4.304721e+002,3.683288e+002
4.314364e+002,3.684517e+002
4.324006e+002,3.677430e+002
4.333648e+002,3.680625e+002
4.343291e+002,3.696300e+002
4.352933e+002,3.706188e+002
4.362575e+002,3.704534e+002
4.372218e+002,3.700981e+002
4.381860e+002,3.704609e+002
4.391502e+002,3.720843e+002
4.401145e+002,3.738900e+002
4.410787e+002,3.742170e+002
4.420429e+002,3.743084e+002
4.430072e+002,3.757056e+002
4.439714e+002,3.792594e+002
4.449356e+002,3.843280e+002
4.458999e+002,3.861773e+002
4.468641e+002,3.849652e+002
4.478283e+002,3.833236e+002
4.487926e+002,3.828394e+002
4.497568e+002,3.839191e+002
4.507210e+002,3.854230e+002
4.516853e+002,3.870753e+002
4.526495e+002,3.877649e+002
4.536137e+002,3.869991e+002
4.545780e+002,3.849214e+002
4.555422e+002,3.825534e+002
4.565064e+002,3.803537e+002
4.574707e+002,3.789906e+002
4.584349e+002,3.788396e+002
4.593991e+002,3.796791e+002
4.603634e+002,3.808691e+002
4.613276e+002,3.816311e+002
4.622918e+002,3.821751e+002
4.632561e+002,3.821092e+002
4.642203e+002,3.811920e+002
4.651845e+002,3.797656e+002
4.661488e+002,3.789964e+002
4.671130e+002,3.798112e+002
4.680772e+002,3.795320e+002
4.690415e+002,3.774053e+002
4.700057e+002,3.745760e+002
4.709699e+002,3.730995e+002
4.719342e+002,3.746665e+002
4.728984e+002,3.761747e+002
4.738626e+002,3.761364e+002
4.748269e+002,3.749788e+002
4.757911e+002,3.733632e+002
4.767553e+002,3.718428e+002
4.777196e+002,3.711013e+002
4.786838e+002,3.720735e+002
4.796480e+002,3.741526e+002
4.806123e+002,3.759012e+002
4.815765e+002,3.760176e+002
4.825407e+002,3.745317e+002
4.835050e+002,3.731461e+002
4.844692e+002,3.718356e+002
4.854334e+002,3.706927e+002
4.863977e+002,3.694513e+002
4.873619e+002,3.676009e+002
4.883261e+002,3.654197e+002
4.892904e+002,3.637076e+002
4.902546e+002,3.629399e+002
4.912188e+002,3.635712e+002
4.921831e+002,3.653315e+002
4.931473e+002,3.667737e+002
4.941115e+002,3.647696e+002
4.950758e+002,3.615276e+002
4.960400e+002,3.592557e+002
4.970042e+002,3.588663e+002
4.979685e+002,3.602811e+002
4.989327e+002,3.628153e+002
4.998969e+002,3.670466e+002
5.008612e+002,3.691455e+002
5.018254e+002,3.671950e+002
5.027896e+002,3.624587e+002
5.037539e+002,3.590872e+002
5.047181e+002,3.594307e+002
5.056823e+002,3.602343e+002
5.066466e+002,3.609016e+002
5.076108e+002,3.614161e+002
5.085750e+002,3.617691e+002
5.095393e+002,3.616112e+002
5.105035e+002,3.611247e+002
5.114677e+002,3.613044e+002
5.124320e+002,3.622122e+002
5.133962e+002,3.634333e+002
5.143605e+002,3.643738e+002
5.153247e+002,3.647229e+002
5.162889e+002,3.661437e+002
5.172532e+002,3.693857e+002
5.182174e+002,3.728382e+002
5.191816e+002,3.748275e+002
5.201459e+002,3.745639e+002
5.211101e+002,3.762896e+002
5.220743e+002,3.821426e+002
5.230386e+002,3.876881e+002
5.240028e+002,3.911084e+002
5.249670e+002,3.926060e+002
5.259313e+002,3.946506e+002
5.268955e+002,3.987011e+002
5.278597e+002,4.032190e+002
5.288240e+002,4.079306e+002
5.297882e+002,4.127019e+002
5.307524e+002,4.173178e+002
5.317167e+002,4.212762e+002
5.326809e+002,4.251827e+002
5.336451e+002,4.303843e+002
5.346094e+002,4.366779e+002
5.355736e+002,4.430167e+002
5.365378e+002,4.481805e+002
5.375021e+002,4.528568e+002
5.384663e+002,4.569242e+002
5.394305e+002,4.592786e+002
5.403948e+002,4.614977e+002
5.413590e+002,4.650852e+002
5.423232e+002,4.705543e+002
5.432875e+002,4.759421e+002
5.442517e+002,4.810422e+002
5.452159e+002,4.863412e+002
5.461802e+002,4.917917e+002
5.471444e+002,4.968864e+002
5.481086e+002,5.005804e+002
5.490729e+002,5.004292e+002
5.500371e+002,4.979501e+002
5.510013e+002,4.965307e+002
5.519656e+002,4.978337e+002
5.529298e+002,5.013677e+002
5.538940e+002,5.035473e+002
5.548583e+002,5.015233e+002
5.558225e+002,4.993011e+002
5.567867e+002,4.975862e+002
5.577510e+002,4.964362e+002
5.587152e+002,4.958137e+002
5.596794e+002,4.966233e+002
5.606437e+002,4.972841e+002
5.616079e+002,4.959488e+002
5.625721e+002,4.934498e+002
5.635364e+002,4.911878e+002
5.645006e+002,4.903459e+002
5.654648e+002,4.900338e+002
5.664291e+002,4.872155e+002
5.673933e+002,4.830072e+002
5.683575e+002,4.796014e+002
5.693218e+002,4.780557e+002
5.702860e+002,4.777565e+002
5.712502e+002,4.760846e+002
5.722145e+002,4.726748e+002
5.731787e+002,4.688300e+002
5.741429e+002,4.654853e+002
5.751072e+002,4.628933e+002
5.760714e+002,4.605707e+002
5.770356e+002,4.585479e+002
5.779999e+002,4.563022e+002
5.789641e+002,4.522679e+002
5.799283e+002,4.469373e+002
5.808926e+002,4.418372e+002
5.818568e+002,4.388330e+002
5.828210e+002,4.376385e+002
5.837853e+002,4.363992e+002
5.847495e+002,4.354529e+002
5.857137e+002,4.342193e+002
5.866780e+002,4.319170e+002
5.876422e+002,4.281018e+002
5.886064e+002,4.247233e+002
5.895707e+002,4.216190e+002
5.905349e+002,4.191699e+002
5.914991e+002,4.179329e+002
5.924634e+002,4.176180e+002
5.934276e+002,4.162279e+002
5.943918e+002,4.116119e+002
5.953560e+002,4.066568e+002
5.963203e+002,4.022465e+002
5.972845e+002,3.984850e+002
5.982487e+002,3.951571e+002
5.992130e+002,3.923596e+002
6.001772e+002,3.906184e+002
6.011414e+002,3.886318e+002
6.021057e+002,3.854803e+002
6.030699e+002,3.818589e+002
6.040341e+002,3.794807e+002
6.049984e+002,3.804237e+002
6.059626e+002,3.779782e+002
6.069268e+002,3.712458e+002
6.078911e+002,3.644066e+002
6.088553e+002,3.592798e+002
6.098195e+002,3.557199e+002
6.107838e+002,3.522919e+002
6.117480e+002,3.493220e+002
6.127122e+002,3.462720e+002
6.136765e+002,3.420909e+002
6.146407e+002,3.367868e+002
6.156049e+002,3.312590e+002
6.165692e+002,3.271748e+002
6.175334e+002,3.245630e+002
6.184976e+002,3.213133e+002
6.194619e+002,3.174368e+002
6.204261e+002,3.137048e+002
6.213903e+002,3.110200e+002
6.223546e+002,3.096439e+002
6.233188e+002,3.076829e+002
6.242830e+002,3.046240e+002
6.252473e+002,3.013621e+002
6.262115e+002,2.987624e+002
6.271757e+002,2.969973e+002
6.281400e+002,2.948581e+002
6.291042e+002,2.902561e+002
6.300684e+002,2.858532e+002
6.310327e+002,2.835507e+002
6.319969e+002,2.831467e+002
6.329611e+002,2.828964e+002
6.339254e+002,2.802186e+002
6.348896e+002,2.749274e+002
6.358538e+002,2.714062e+002
6.368181e+002,2.703262e+002
6.377823e+002,2.699658e+002
6.387465e+002,2.683311e+002
6.397108e+002,2.650066e+002
6.406750e+002,2.619396e+002
6.416392e+002,2.584285e+002
6.426035e+002,2.550023e+002
6.435677e+002,2.524305e+002
6.445319e+002,2.507583e+002
6.454962e+002,2.487957e+002
6.464604e+002,2.451187e+002
6.474246e+002,2.413351e+002
6.483889e+002,2.381887e+002
6.493531e+002,2.355762e+002
6.503173e+002,2.332208e+002
6.512816e+002,2.310107e+002
6.522458e+002,2.291095e+002
6.532100e+002,2.271396e+002
6.541743e+002,2.254514e+002
6.551385e+002,2.235628e+002
6.561027e+002,2.206308e+002
6.570670e+002,2.161515e+002
6.580312e+002,2.125787e+002
6.589954e+002,2.104492e+002
6.599597e+002,2.081339e+002
6.609239e+002,2.051324e+002
6.618881e+002,2.019285e+002
6.628524e+002,1.998176e+002
6.638166e+002,2.006735e+002
6.647808e+002,2.015469e+002
6.657451e+002,1.988641e+002
6.667093e+002,1.935171e+002
6.676735e+002,1.880923e+002
6.686378e+002,1.851590e+002
6.696020e+002,1.846329e+002
6.705662e+002,1.829341e+002
6.715305e+002,1.799278e+002
6.724947e+002,1.765050e+002
6.734589e+002,1.732318e+002
6.744232e+002,1.703099e+002
6.753874e+002,1.677495e+002
6.763516e+002,1.651905e+002
6.773159e+002,1.631220e+002
6.782801e+002,1.615967e+002
6.792443e+002,1.602816e+002
6.802086e+002,1.588442e+002
6.811728e+002,1.572106e+002
6.821370e+002,1.551765e+002
6.831013e+002,1.527605e+002
6.840655e+002,1.503121e+002
6.850297e+002,1.479931e+002
6.859940e+002,1.457892e+002
6.869582e+002,1.436235e+002
6.879224e+002,1.418696e+002
6.888867e+002,1.409441e+002
6.898509e+002,1.392267e+002
6.908151e+002,1.362840e+002
6.917794e+002,1.327320e+002
6.927436e+002,1.294579e+002
6.937078e+002,1.258717e+002
6.946721e+002,1.237422e+002
6.956363e+002,1.246146e+002
6.966005e+002,1.265362e+002
6.975648e+002,1.275711e+002
6.985290e+002,1.267067e+002
6.994932e+002,1.244804e+002
7.004575e+002,1.218566e+002
7.014217e+002,1.191405e+002
7.023859e+002,1.166202e+002
7.033502e+002,1.144974e+002
7.043144e+002,1.127137e+002
7.052786e+002,1.108385e+002
7.062429e+002,1.079587e+002
7.072071e+002,1.060839e+002
7.081713e+002,1.068036e+002
7.091356e+002,1.077512e+002
7.100998e+002,1.063325e+002
7.110640e+002,1.017061e+002
7.120283e+002,9.769048e+001
7.129925e+002,9.728153e+001
7.139567e+002,9.743217e+001
7.149210e+002,9.648595e+001
7.158852e+002,9.434499e+001
7.168494e+002,9.189687e+001
7.178137e+002,9.016537e+001
7.187779e+002,8.935825e+001
7.197421e+002,8.918122e+001
7.207064e+002,8.952955e+001
7.216706e+002,8.985548e+001
7.226348e+002,8.964975e+001
7.235991e+002,8.887751e+001
7.245633e+002,8.901855e+001
7.255275e+002,9.071284e+001
7.264918e+002,9.164506e+001
7.274560e+002,9.073909e+001
7.284202e+002,8.883704e+001
7.293845e+002,8.819411e+001
7.303487e+002,9.105352e+001
7.313129e+002,9.324839e+001
7.322772e+002,9.050077e+001
7.332414e+002,8.524437e+001
7.342056e+002,8.118972e+001
7.351699e+002,8.080561e+001
7.361341e+002,8.348585e+001
7.370983e+002,8.640450e+001
7.380626e+002,8.932165e+001
7.390268e+002,9.109917e+001
7.399910e+002,9.134136e+001
7.409553e+002,9.071272e+001
7.419195e+002,9.041277e+001
7.428837e+002,9.037687e+001
7.438480e+002,8.970580e+001
7.448122e+002,8.819605e+001
7.457764e+002,8.694738e+001
7.467407e+002,8.690153e+001
7.477049e+002,8.828271e+001
7.486691e+002,9.028182e+001
7.496334e+002,9.196014e+001
7.505976e+002,9.278558e+001
7.515618e+002,9.202888e+001
7.525261e+002,8.992515e+001
7.534903e+002,8.815383e+001
7.544545e+002,8.918728e+001
7.554188e+002,9.429789e+001
7.563830e+002,9.829743e+001
7.573472e+002,1.004416e+002
7.583115e+002,1.013336e+002
7.592757e+002,1.011248e+002
7.602399e+002,1.003090e+002
7.612042e+002,1.004791e+002
7.621684e+002,1.024469e+002
7.631326e+002,1.042523e+002
7.640969e+002,1.051063e+002
7.650611e+002,1.053875e+002
7.660253e+002,1.059440e+002
7.669896e+002,1.075169e+002
7.679538e+002,1.099523e+002
7.689180e+002,1.117186e+002
7.698823e+002,1.122857e+002
7.708465e+002,1.122394e+002
7.718107e+002,1.122003e+002
7.727750e+002,1.124523e+002
7.737392e+002,1.127689e+002
7.747034e+002,1.128951e+002
7.756677e+002,1.135326e+002
7.766319e+002,1.147222e+002
7.775961e+002,1.159811e+002
7.785604e+002,1.169215e+002
7.795246e+002,1.174603e+002
7.804888e+002,1.178438e+002
7.814531e+002,1.181960e+002
7.824173e+002,1.185428e+002
7.833815e+002,1.194315e+002
7.843458e+002,1.207111e+002
7.853100e+002,1.212988e+002
7.862742e+002,1.195819e+002
7.872385e+002,1.151209e+002
7.882027e+002,1.125667e+002
7.891669e+002,1.121531e+002
7.901312e+002,1.123951e+002
7.910954e+002,1.138374e+002
7.920596e+002,1.164423e+002
7.930239e+002,1.165868e+002
7.939881e+002,1.095327e+002
7.949523e+002,1.044826e+002
7.959166e+002,1.049468e+002
7.968808e+002,1.082296e+002
7.978450e+002,1.111150e+002
7.988093e+002,1.120157e+002
7.997735e+002,1.115773e+002
8.007377e+002,1.100756e+002
8.017020e+002,1.081138e+002
8.026662e+002,1.068430e+002
8.036304e+002,1.065983e+002
8.045947e+002,1.067630e+002
8.055589e+002,1.061298e+002
8.065231e+002,1.042306e+002
8.074874e+002,1.024139e+002
8.084516e+002,1.009877e+002
8.094158e+002,9.936936e+001
8.103801e+002,9.726653e+001
8.113443e+002,9.500507e+001
8.123085e+002,9.350243e+001
8.132728e+002,9.337395e+001
8.142370e+002,9.292463e+001
8.152012e+002,9.092442e+001
8.161655e+002,8.756289e+001
8.171297e+002,8.351962e+001
8.180939e+002,7.956828e+001
8.190582e+002,7.654439e+001
8.200224e+002,7.664624e+001
8.209866e+002,7.977314e+001
8.219509e+002,8.178268e+001
8.229151e+002,8.063281e+001
8.238793e+002,7.756182e+001
8.248436e+002,7.568109e+001
8.258078e+002,7.603524e+001
8.267720e+002,7.545460e+001
8.277363e+002,7.274823e+001
8.287005e+002,6.936823e+001
8.296647e+002,6.633109e+001
8.306290e+002,6.399287e+001
8.315932e+002,6.217763e+001
8.325574e+002,6.082894e+001
8.335217e+002,5.954003e+001
8.344859e+002,5.723594e+001
8.354501e+002,5.399998e+001
8.364144e+002,5.112316e+001
8.373786e+002,4.986593e+001
8.383428e+002,5.030159e+001
8.393071e+002,5.039503e+001
8.402713e+002,4.942856e+001
8.412355e+002,4.909284e+001
8.421998e+002,5.032739e+001
8.431640e+002,5.190137e+001
8.441282e+002,5.176071e+001
8.450925e+002,4.890723e+001
8.460567e+002,4.639362e+001
8.470209e+002,4.676301e+001
8.479852e+002,4.791531e+001
8.489494e+002,4.842170e+001
8.499136e+002,4.805079e+001
8.508779e+002,4.732161e+001
8.518421e+002,4.679076e+001
8.528063e+002,4.643801e+001
8.537706e+002,4.674319e+001
8.547348e+002,4.821128e+001
8.556990e+002,4.915290e+001
8.566633e+002,4.826409e+001
8.576275e+002,4.565228e+001
8.585917e+002,4.287904e+001
8.595560e+002,3.905058e+001
8.605202e+002,3.721475e+001
8.614844e+002,3.978159e+001
8.624487e+002,4.379871e+001
8.634129e+002,4.583932e+001
8.643771e+002,4.450533e+001
8.653414e+002,4.166922e+001
8.663056e+002,4.012536e+001
8.672698e+002,3.992007e+001
8.682341e+002,4.018784e+001
8.691983e+002,4.053098e+001
8.701625e+002,4.076410e+001
8.711268e+002,4.077367e+001
8.720910e+002,4.040837e+001
8.730552e+002,3.957470e+001
8.740195e+002,3.897475e+001
8.749837e+002,3.905518e+001
8.759479e+002,3.972181e+001
8.769122e+002,4.058114e+001
8.778764e+002,4.110271e+001
8.788406e+002,4.088346e+001
8.798049e+002,4.047142e+001
8.807691e+002,4.162952e+001
8.817333e+002,4.307310e+001
8.826976e+002,4.269228e+001
8.836618e+002,4.016153e+001
8.846260e+002,3.718237e+001
8.855903e+002,3.653836e+001
8.865545e+002,3.850729e+001
8.875187e+002,4.029758e+001
8.884830e+002,4.207696e+001
8.894472e+002,4.363828e+001
8.904114e+002,4.495712e+001
8.913757e+002,4.607365e+001
8.923399e+002,4.678315e+001
8.933041e+002,4.629272e+001
8.942684e+002,4.570647e+001
8.952326e+002,4.577100e+001
8.961968e+002,4.610648e+001
8.971611e+002,4.628682e+001
8.981253e+002,4.625747e+001
8.990895e+002,4.646012e+001
9.000538e+002,4.756062e+001
9.010180e+002,4.914221e+001
9.019822e+002,4.948059e+001
9.029465e+002,4.822408e+001
9.039107e+002,4.698523e+001
9.048749e+002,4.738451e+001
9.058392e+002,4.946301e+001
9.068034e+002,5.106228e+001
9.077676e+002,5.144556e+001
9.087319e+002,5.232903e+001
9.096961e+002,5.471173e+001
9.106603e+002,5.776608e+001
9.116246e+002,6.007685e+001
9.125888e+002,6.092646e+001
9.135530e+002,6.147841e+001
9.145173e+002,6.354887e+001
9.154815e+002,6.599362e+001
9.164457e+002,6.764706e+001
9.174100e+002,6.863231e+001
9.183742e+002,6.967390e+001
9.193384e+002,7.143811e+001
9.203027e+002,7.395728e+001
9.212669e+002,7.640511e+001
9.222311e+002,7.803668e+001
9.231954e+002,7.910844e+001
9.241596e+002,7.985986e+001
9.251238e+002,8.082497e+001
9.260881e+002,8.259484e+001
9.270523e+002,8.535918e+001
9.280165e+002,8.807751e+001
9.289808e+002,8.971205e+001
9.299450e+002,9.123437e+001
9.309092e+002,9.344427e+001
9.318735e+002,9.628278e+001
9.328377e+002,9.910934e+001
9.338019e+002,1.012658e+002
9.347662e+002,1.027351e+002
9.357304e+002,1.044812e+002
9.366946e+002,1.073189e+002
9.376589e+002,1.097770e+002
9.386231e+002,1.103965e+002
9.395873e+002,1.099543e+002
9.405516e+002,1.108941e+002
9.415158e+002,1.145459e+002
9.424800e+002,1.175407e+002
9.434443e+002,1.178276e+002
9.444085e+002,1.177688e+002
9.453727e+002,1.191163e+002
9.463370e+002,1.217824e+002
9.473012e+002,1.242668e+002
9.482654e+002,1.249883e+002
9.492297e+002,1.242149e+002
9.501939e+002,1.246674e+002
9.511581e+002,1.268487e+002
9.521224e+002,1.291004e+002
9.530866e+002,1.306550e+002
9.540508e+002,1.314472e+002
9.550151e+002,1.313995e+002
9.559793e+002,1.297239e+002
9.569435e+002,1.281858e+002
9.579078e+002,1.282580e+002
9.588720e+002,1.289687e+002
9.598362e+002,1.295081e+002
9.608005e+002,1.297213e+002
9.617647e+002,1.299184e+002
9.627289e+002,1.303720e+002
9.636932e+002,1.308441e+002
9.646574e+002,1.305927e+002
9.656216e+002,1.297424e+002
9.665859e+002,1.294092e+002
9.675501e+002,1.303536e+002
9.685143e+002,1.321963e+002
9.694786e+002,1.337816e+002
9.704428e+002,1.349174e+002
9.714070e+002,1.366634e+002
9.723713e+002,1.379261e+002
9.733355e+002,1.394175e+002
9.742997e+002,1.422705e+002
9.752640e+002,1.463175e+002
9.762282e+002,1.504454e+002
9.771924e+002,1.537498e+002
9.781567e+002,1.564931e+002
9.791209e+002,1.595076e+002
9.800851e+002,1.625167e+002
9.810494e+002,1.649504e+002
9.820136e+002,1.668421e+002
9.829778e+002,1.688127e+002
9.839421e+002,1.715544e+002
9.849063e+002,1.749305e+002
9.858705e+002,1.765106e+002
9.868348e+002,1.760440e+002
9.877990e+002,1.761315e+002
9.887632e+002,1.776012e+002
9.897275e+002,1.797407e+002
9.906917e+002,1.810877e+002
9.916559e+002,1.806831e+002
9.926202e+002,1.797911e+002
9.935844e+002,1.813548e+002
9.945486e+002,1.831552e+002
9.955129e+002,1.826991e+002
9.964771e+002,1.802821e+002
9.974413e+002,1.778774e+002
9.984056e+002,1.771500e+002
9.993698e+002,1.777237e+002
1.000334e+003,1.784706e+002
1.001298e+003,1.798402e+002
1.002263e+003,1.810610e+002
1.003227e+003,1.823509e+002
1.004191e+003,1.831573e+002
1.005155e+003,1.822275e+002
1.006119e+003,1.792584e+002
1.007084e+003,1.774584e+002
1.008048e+003,1.795374e+002
1.009012e+003,1.831253e+002
1.009976e+003,1.872535e+002
1.010941e+003,1.911009e+002
1.011905e+003,1.937100e+002
1.012869e+003,1.946330e+002
1.013833e+003,1.944052e+002
1.014798e+003,1.943936e+002
1.015762e+003,1.952068e+002
1.016726e+003,1.968434e+002
1.017690e+003,1.991736e+002
1.018654e+003,2.022339e+002
1.019619e+003,2.058890e+002
1.020583e+003,2.099922e+002
1.021547e+003,2.147488e+002
1.022511e+003,2.210740e+002
1.023476e+003,2.260301e+002
1.024440e+003,2.285340e+002
1.025404e+003,2.298447e+002
1.026368e+003,2.304950e+002
1.027333e+003,2.310468e+002
1.028297e+003,2.326889e+002
1.029261e+003,2.369288e+002
1.030225e+003,2.431125e+002
1.031190e+003,2.470296e+002
1.032154e+003,2.489410e+002
1.033118e+003,2.516509e+002
1.034082e+003,2.568009e+002
1.035047e+003,2.629235e+002
1.036011e+003,2.667419e+002
1.036975e+003,2.670344e+002
1.037939e+003,2.679009e+002
1.038903e+003,2.723949e+002
1.039868e+003,2.774426e+002
1.040832e+003,2.804865e+002
1.041796e+003,2.821935e+002
1.042760e+003,2.849019e+002
1.043725e+003,2.901489e+002
1.044689e+003,2.966534e+002
1.045653e+003,3.015041e+002
1.046617e+003,3.047751e+002
1.047582e+003,3.082456e+002
1.048546e+003,3.129493e+002
1.049510e+003,3.182018e+002
1.050474e+003,3.225677e+002
1.051438e+003,3.257535e+002
1.052403e+003,3.301233e+002
1.053367e+003,3.374214e+002
1.054331e+003,3.436171e+002
1.055295e+003,3.472397e+002
1.056260e+003,3.498744e+002
1.057224e+003,3.528588e+002
1.058188e+003,3.567665e+002
1.059152e+003,3.616578e+002
1.060117e+003,3.676110e+002
1.061081e+003,3.743587e+002
1.062045e+003,3.810866e+002
1.063009e+003,3.873977e+002
1.063974e+003,3.924212e+002
1.064938e+003,3.957349e+002
1.065902e+003,3.985954e+002
1.066866e+003,4.030282e+002
1.067830e+003,4.090721e+002
1.068795e+003,4.143791e+002
1.069759e+003,4.182808e+002
1.070723e+003,4.222124e+002
1.071687e+003,4.269723e+002
1.072652e+003,4.327153e+002
1.073616e+003,4.392642e+002
1.074580e+003,4.461342e+002
1.075544e+003,4.523904e+002
1.076509e+003,4.570254e+002
1.077473e+003,4.604312e+002
1.078437e+003,4.640087e+002
1.079401e+003,4.679615e+002
1.080365e+003,4.722183e+002
1.081330e+003,4.764368e+002
1.082294e+003,4.805407e+002
1.083258e+003,4.850906e+002
1.084222e+003,4.913877e+002
1.085187e+003,4.958871e+002
1.086151e+003,4.961815e+002
1.087115e+003,4.962800e+002
1.088079e+003,5.002212e+002
1.089043e+003,5.067789e+002
1.090008e+003,5.105332e+002
1.090972e+003,5.072715e+002
1.091936e+003,5.005476e+002
1.092900e+003,5.005646e+002
1.093865e+003,5.061606e+002
1.094829e+003,5.096423e+002
1.095793e+003,5.091563e+002
1.096757e+003,5.070885e+002
1.097722e+003,5.057099e+002
1.098686e+003,5.046100e+002
1.099650e+003,5.021607e+002
1.100614e+003,4.985323e+002
1.101578e+003,4.946454e+002
1.102543e+003,4.895865e+002
1.103507e+003,4.847032e+002
1.104471e+003,4.812833e+002
1.105435e+003,4.790345e+002
1.106400e+003,4.765158e+002
1.107364e+003,4.729284e+002
1.108328e+003,4.689900e+002
1.109292e+003,4.656009e+002
1.110257e+003,4.629973e+002
1.111221e+003,4.600857e+002
1.112185e+003,4.560097e+002
1.113149e+003,4.504115e+002
1.114114e+003,4.428507e+002
1.115078e+003,4.333666e+002
1.116042e+003,4.251579e+002
1.117006e+003,4.202316e+002
1.117970e+003,4.156443e+002
1.118935e+003,4.099561e+002
1.119899e+003,4.035497e+002
1.120863e+003,3.978079e+002
1.121827e+003,3.930692e+002
1.122792e+003,3.875154e+002
1.123756e+003,3.782147e+002
1.124720e+003,3.654746e+002
1.125684e+003,3.569166e+002
1.126649e+003,3.539890e+002
1.127613e+003,3.511674e+002
1.128577e+003,3.459962e+002
1.129541e+003,3.396318e+002
1.130505e+003,3.339986e+002
1.131470e+003,3.291617e+002
1.132434e+003,3.236882e+002
1.133398e+003,3.166683e+002
1.134362e+003,3.102430e+002
1.135327e+003,3.053194e+002
1.136291e+003,3.012155e+002
1.137255e+003,2.971794e+002
1.138219e+003,2.929409e+002
1.139184e+003,2.886582e+002
1.140148e+003,2.844504e+002
1.141112e+003,2.798613e+002
1.142076e+003,2.734040e+002
1.143041e+003,2.646944e+002
1.144005e+003,2.573496e+002
1.144969e+003,2.532345e+002
1.145933e+003,2.507697e+002
1.146897e+003,2.476709e+002
1.147862e+003,2.434848e+002
1.148826e+003,2.385572e+002
1.149790e+003,2.327392e+002
1.150754e+003,2.271146e+002
1.151719e+003,2.223904e+002
1.152683e+003,2.182973e+002
1.153647e+003,2.142667e+002
1.154611e+003,2.101472e+002
1.155576e+003,2.062166e+002
1.156540e+003,2.026886e+002
1.157504e+003,1.990819e+002
1.158468e+003,1.955727e+002
1.159432e+003,1.930261e+002
1.160397e+003,1.902745e+002
1.161361e+003,1.874546e+002
1.162325e+003,1.845797e+002
1.163289e+003,1.813479e+002
1.164254e+003,1.774861e+002
1.165218e+003,1.730236e+002
1.166182e+003,1.677677e+002
1.167146e+003,1.627705e+002
1.168111e+003,1.587848e+002
1.169075e+003,1.553649e+002
1.170039e+003,1.520486e+002
1.171003e+003,1.486508e+002
1.171968e+003,1.449597e+002
1.172932e+003,1.406946e+002
1.173896e+003,1.359401e+002
1.174860e+003,1.320671e+002
1.175824e+003,1.287719e+002
1.176789e+003,1.261698e+002
1.177753e+003,1.249373e+002
1.178717e+003,1.241427e+002
1.179681e+003,1.231933e+002
1.180646e+003,1.218266e+002
1.181610e+003,1.194367e+002
1.182574e+003,1.153991e+002
1.183538e+003,1.109976e+002
1.184503e+003,1.082542e+002
1.185467e+003,1.063573e+002
1.186431e+003,1.036640e+002
1.187395e+003,9.967358e+001
1.188359e+003,9.543901e+001
1.189324e+003,9.231072e+001
1.190288e+003,9.048640e+001
1.191252e+003,8.922485e+001
1.192216e+003,8.910197e+001
1.193181e+003,8.805560e+001
1.194145e+003,8.533553e+001
1.195109e+003,8.173785e+001
1.196073e+003,7.761987e+001
1.197038e+003,7.359132e+001
1.198002e+003,7.041453e+001
1.198966e+003,6.837721e+001
1.199930e+003,6.690651e+001
1.200895e+003,6.539749e+001
1.201859e+003,6.383557e+001
1.202823e+003,6.210423e+001
1.203787e+003,6.008592e+001
1.204751e+003,5.805006e+001
1.205716e+003,5.608994e+001
1.206680e+003,5.434792e+001
1.207644e+003,5.328091e+001
1.208608e+003,5.314745e+001
1.209573e+003,5.234433e+001
1.210537e+003,5.048079e+001
1.211501e+003,4.851864e+001
1.212465e+003,4.641551e+001
1.213430e+003,4.465091e+001
1.214394e+003,4.361831e+001
1.215358e+003,4.313950e+001
1.216322e+003,4.272070e+001
1.217286e+003,4.229838e+001
1.218251e+003,4.199223e+001
1.219215e+003,4.016558e+001
1.220179e+003,3.650063e+001
1.221143e+003,3.396973e+001
1.222108e+003,3.432361e+001
1.223072e+003,3.532283e+001
1.224036e+003,3.378588e+001
1.225000e+003,2.975986e+001
1.225965e+003,2.720469e+001
1.226929e+003,2.815002e+001
1.227893e+003,2.898959e+001
1.228857e+003,2.797927e+001
1.229822e+003,2.673135e+001
1.230786e+003,2.622375e+001
1.231750e+003,2.636356e+001
1.232714e+003,2.677065e+001
1.233678e+003,2.723923e+001
1.234643e+003,2.741991e+001
1.235607e+003,2.609750e+001
1.236571e+003,2.207932e+001
1.237535e+003,2.067918e+001
1.238500e+003,2.393995e+001
1.239464e+003,2.659972e+001
1.240428e+003,2.545867e+001
1.241392e+003,2.205975e+001
1.242357e+003,1.943650e+001
1.243321e+003,1.865047e+001
1.244285e+003,1.879794e+001
1.245249e+003,1.921726e+001
1.246214e+003,1.978383e+001
1.247178e+003,2.006299e+001
1.248142e+003,1.980872e+001
1.249106e+003,1.916146e+001
1.250070e+003,1.833264e+001
1.251035e+003,1.754510e+001
1.251999e+003,1.692505e+001
1.252963e+003,1.643026e+001
1.253927e+003,1.603705e+001
1.254892e+003,1.580151e+001
1.255856e+003,1.593830e+001
1.256820e+003,1.646536e+001
1.257784e+003,1.713050e+001
1.258749e+003,1.808137e+001
1.259713e+003,1.899886e+001
1.260677e+003,1.903728e+001
1.261641e+003,1.770175e+001
1.262605e+003,1.577470e+001
1.263570e+003,1.465807e+001
1.264534e+003,1.449068e+001
1.265498e+003,1.454847e+001
1.266462e+003,1.511744e+001
1.267427e+003,1.547903e+001
1.268391e+003,1.453822e+001
1.269355e+003,1.310400e+001
1.270319e+003,1.311957e+001
1.271284e+003,1.498739e+001
1.272248e+003,1.659155e+001
1.273212e+003,1.781127e+001
1.274176e+003,1.824524e+001
1.275141e+003,1.578359e+001
1.276105e+003,1.196124e+001
1.277069e+003,9.407349e+000
1.278033e+003,8.969490e+000
1.278997e+003,1.013163e+001
1.279962e+003,1.261733e+001
1.280926e+003,1.617202e+001
1.281890e+003,1.773264e+001
1.282854e+003,1.409406e+001
1.283819e+003,1.189543e+001
1.284783e+003,1.347393e+001
1.285747e+003,1.441987e+001
1.286711e+003,1.222129e+001
1.287676e+003,8.667755e+000
1.288640e+003,6.195648e+000
1.289604e+003,5.334221e+000
1.290568e+003,5.696259e+000
1.291532e+003,7.293358e+000
1.292497e+003,9.607323e+000
1.293461e+003,1.213536e+001
1.294425e+003,1.484518e+001
1.295389e+003,1.621999e+001
1.296354e+003,1.532870e+001
1.297318e+003,1.361901e+001
1.298282e+003,1.241581e+001
1.299246e+003,1.166727e+001
1.300211e+003,1.145500e+001
1.301175e+003,1.254640e+001
1.302139e+003,1.332526e+001
1.303103e+003,1.210107e+001
1.304068e+003,1.059889e+001
1.305032e+003,1.035246e+001
1.305996e+003,1.078751e+001
1.306960e+003,1.031223e+001
1.307924e+003,8.574577e+000
1.308889e+003,7.254417e+000
1.309853e+003,8.302383e+000
1.310817e+003,1.103078e+001
1.311781e+003,1.301683e+001
1.312746e+003,1.581783e+001
1.313710e+003,1.768513e+001
1.314674e+003,1.751119e+001
1.315638e+003,1.674132e+001
1.316603e+003,1.592635e+001
1.317567e+003,1.492208e+001
1.318531e+003,1.409488e+001
1.319495e+003,1.414819e+001
1.320459e+003,1.461356e+001
1.321424e+003,1.420811e+001
1.322388e+003,1.319152e+001
1.323352e+003,1.258669e+001
1.324316e+003,1.245778e+001
1.325281e+003,1.279408e+001
1.326245e+003,1.382138e+001
1.327209e+003,1.454303e+001
1.328173e+003,1.305431e+001
1.329138e+003,9.377739e+000
1.330102e+003,7.460159e+000
1.331066e+003,8.585983e+000
1.332030e+003,1.017374e+001
1.332995e+003,1.172069e+001
1.333959e+003,1.266041e+001
1.334923e+003,1.248076e+001
1.335887e+003,1.143394e+001
1.336851e+003,9.852097e+000
1.337816e+003,8.229324e+000
1.338780e+003,7.651611e+000
1.339744e+003,9.378593e+000
1.340708e+003,1.288165e+001
1.341673e+003,1.486453e+001
1.342637e+003,1.544905e+001
1.343601e+003,1.465554e+001
1.344565e+003,1.150523e+001
1.345530e+003,8.511047e+000
1.346494e+003,7.256096e+000
1.347458e+003,7.504509e+000
1.348422e+003,8.682755e+000
1.349386e+003,1.054301e+001
1.350351e+003,1.178764e+001
1.351315e+003,1.135173e+001
1.352279e+003,1.048712e+001
1.353243e+003,1.114310e+001
1.354208e+003,1.294681e+001
1.355172e+003,1.396281e+001
1.356136e+003,1.313679e+001
1.357100e+003,1.164768e+001
1.358065e+003,1.122092e+001
1.359029e+003,1.182702e+001
1.359993e+003,1.183058e+001
1.360957e+003,1.104607e+001
1.361922e+003,1.043908e+001
1.362886e+003,1.033418e+001
1.363850e+003,1.029435e+001
1.364814e+003,9.548615e+000
1.365778e+003,8.573875e+000
1.366743e+003,8.638840e+000
1.367707e+003,9.887161e+000
1.368671e+003,1.079005e+001
1.369635e+003,9.846626e+000
1.370600e+003,7.904144e+000
1.371564e+003,7.636230e+000
1.372528e+003,9.342216e+000
1.373492e+003,1.108459e+001
1.374457e+003,1.306924e+001
1.375421e+003,1.446417e+001
1.376385e+003,1.530120e+001
1.377349e+003,1.549200e+001
1.378313e+003,1.457040e+001
1.379278e+003,1.249561e+001
1.380242e+003,9.764107e+000
1.381206e+003,6.384476e+000
1.382170e+003,3.963120e+000
1.383135e+003,5.961761e+000
1.384099e+003,1.058603e+001
1.385063e+003,1.271526e+001
1.386027e+003,1.101857e+001
1.386992e+003,8.655579e+000
1.387956e+003,8.233284e+000
1.388920e+003,8.980011e+000
1.389884e+003,8.713188e+000
1.390849e+003,7.418930e+000
1.391813e+003,7.360283e+000
1.392777e+003,9.122940e+000
1.393741e+003,1.046965e+001
1.394705e+003,1.117473e+001
1.395670e+003,1.174932e+001
1.396634e+003,1.199037e+001
1.397598e+003,1.164495e+001
1.398562e+003,1.081566e+001
1.399527e+003,9.841492e+000
1.400491e+003,9.023041e+000
1.401455e+003,8.424385e+000
1.402419e+003,7.974922e+000
1.403384e+003,8.492149e+000
1.404348e+003,1.037933e+001
1.405312e+003,1.140940e+001
1.406276e+003,1.277335e+001
1.407240e+003,1.389989e+001
1.408205e+003,1.289620e+001
1.409169e+003,1.061195e+001
1.410133e+003,9.124527e+000
1.411097e+003,9.057838e+000
1.412062e+003,9.505386e+000
1.413026e+003,1.003321e+001
1.413990e+003,1.105219e+001
1.414954e+003,1.241562e+001
1.415919e+003,1.382441e+001
1.416883e+003,1.454035e+001
1.417847e+003,1.391309e+001
1.418811e+003,1.284873e+001
1.419776e+003,1.181032e+001
1.420740e+003,1.087453e+001
1.421704e+003,9.933983e+000
1.422668e+003,9.127129e+000
1.423632e+003,9.238808e+000
1.424597e+003,1.071482e+001
1.425561e+003,1.260400e+001
1.426525e+003,1.470712e+001
1.427489e+003,1.637653e+001
1.428454e+003,1.590205e+001
1.429418e+003,1.341550e+001
1.430382e+003,1.162854e+001
1.431346e+003,1.176257e+001
1.432311e+003,1.276593e+001
1.433275e+003,1.400704e+001
1.434239e+003,1.597387e+001
1.435203e+003,1.753893e+001
1.436167e+003,1.814648e+001
1.437132e+003,1.782473e+001
1.438096e+003,1.529321e+001
1.439060e+003,1.284179e+001
1.440024e+003,1.262385e+001
1.440989e+003,1.389731e+001
1.441953e+003,1.491383e+001
1.442917e+003,1.486640e+001
1.443881e+003,1.391030e+001
1.444846e+003,1.239233e+001
1.445810e+003,1.101731e+001
1.446774e+003,1.155454e+001
1.447738e+003,1.485101e+001
1.448703e+003,1.626749e+001
1.449667e+003,1.450661e+001
1.450631e+003,1.299281e+001
1.451595e+003,1.292704e+001
1.452559e+003,1.362440e+001
1.453524e+003,1.460944e+001
1.454488e+003,1.546320e+001
1.455452e+003,1.533578e+001
1.456416e+003,1.388313e+001
1.457381e+003,1.255665e+001
1.458345e+003,1.343977e+001
1.459309e+003,1.586436e+001
1.460273e+003,1.581002e+001
1.461238e+003,1.281667e+001
1.462202e+003,1.168313e+001
1.463166e+003,1.392797e+001
1.464130e+003,1.688438e+001
1.465094e+003,1.912681e+001
1.466059e+003,2.014404e+001
1.467023e+003,1.931802e+001
1.467987e+003,1.708625e+001
1.468951e+003,1.577187e+001
1.469916e+003,1.697733e+001
1.470880e+003,1.925861e+001
1.471844e+003,1.970684e+001
1.472808e+003,1.854395e+001
1.473773e+003,1.844759e+001
1.474737e+003,2.007214e+001
1.475701e+003,2.115257e+001
1.476665e+003,2.048138e+001
1.477630e+003,1.922079e+001
1.478594e+003,1.825066e+001
1.479558e+003,1.728631e+001
1.480522e+003,1.640907e+001
1.481486e+003,1.577609e+001
1.482451e+003,1.602125e+001
1.483415e+003,1.851246e+001
1.484379e+003,2.067471e+001
1.485343e+003,1.970690e+001
1.486308e+003,1.734208e+001
1.487272e+003,1.661900e+001
1.488236e+003,1.801525e+001
1.489200e+003,1.970602e+001
1.490165e+003,2.015810e+001
1.491129e+003,1.997597e+001
1.492093e+003,2.086436e+001
1.493057e+003,2.308699e+001
1.494021e+003,2.568555e+001
1.494986e+003,2.974317e+001
1.495950e+003,3.230777e+001
1.496914e+003,3.117799e+001
1.497878e+003,2.913824e+001
1.498843e+003,2.749494e+001
1.499807e+003,2.674546e+001
1.500771e+003,2.777815e+001
1.501735e+003,3.042891e+001
1.502700e+003,3.258376e+001
1.503664e+003,3.217443e+001
1.504628e+003,3.004771e+001
1.505592e+003,2.937907e+001
1.506557e+003,3.108659e+001
1.507521e+003,3.241743e+001
1.508485e+003,3.264246e+001
1.509449e+003,3.285511e+001
1.510413e+003,3.311191e+001
1.511378e+003,3.327716e+001
1.512342e+003,3.358330e+001
1.513306e+003,3.393194e+001
1.514270e+003,3.404237e+001
1.515235e+003,3.369603e+001
1.516199e+003,3.261784e+001
1.517163e+003,3.058996e+001
1.518127e+003,2.816451e+001
1.519092e+003,2.675896e+001
1.520056e+003,2.642680e+001
1.521020e+003,2.609912e+001
1.521984e+003,2.584451e+001
1.522948e+003,2.543860e+001
1.523913e+003,2.457831e+001
1.524877e+003,2.432838e+001
1.525841e+003,2.624706e+001
1.526805e+003,2.914700e+001
1.527770e+003,2.971475e+001
1.528734e+003,2.688365e+001
1.529698e+003,2.372976e+001
1.530662e+003,2.337659e+001
1.531627e+003,2.479743e+001
1.532591e+003,2.469711e+001
1.533555e+003,2.288776e+001
1.534519e+003,2.169122e+001
1.535484e+003,2.176678e+001
1.536448e+003,2.168295e+001
1.537412e+003,2.041943e+001
1.538376e+003,1.882006e+001
1.539340e+003,1.800250e+001
1.540305e+003,1.793905e+001
1.541269e+003,1.779328e+001
1.542233e+003,1.709034e+001
1.543197e+003,1.605940e+001
1.544162e+003,1.481718e+001
1.545126e+003,1.380624e+001
1.546090e+003,1.461611e+001
1.547054e+003,1.753312e+001
1.548019e+003,2.015845e+001
1.548983e+003,2.129876e+001
1.549947e+003,2.157495e+001
1.550911e+003,2.148628e+001
1.551875e+003,2.093968e+001
1.552840e+003,1.980198e+001
1.553804e+003,1.863280e+001
1.554768e+003,1.823554e+001
1.555732e+003,1.843314e+001
1.556697e+003,1.845145e+001
1.557661e+003,1.821030e+001
1.558625e+003,1.750867e+001
1.559589e+003,1.553953e+001
1.560554e+003,1.293106e+001
1.561518e+003,1.106566e+001
1.562482e+003,1.001057e+001
1.563446e+003,9.841667e+000
1.564411e+003,1.133665e+001
1.565375e+003,1.342322e+001
1.566339e+003,1.473050e+001
1.567303e+003,1.534926e+001
1.568267e+003,1.580562e+001
1.569232e+003,1.614072e+001
1.570196e+003,1.626582e+001
1.571160e+003,1.597710e+001
1.572124e+003,1.565398e+001
1.573089e+003,1.634749e+001
1.574053e+003,1.752819e+001
1.575017e+003,1.764597e+001
1.575981e+003,1.652464e+001
1.576946e+003,1.573298e+001
1.577910e+003,1.605009e+001
1.578874e+003,1.608244e+001
1.579838e+003,1.400432e+001
1.580802e+003,1.137556e+001
1.581767e+003,1.228100e+001
1.582731e+003,1.681340e+001
1.583695e+003,1.985387e+001
1.584659e+003,1.928963e+001
1.585624e+003,1.789436e+001
1.586588e+003,1.900306e+001
1.587552e+003,2.059243e+001
1.588516e+003,1.910265e+001
1.589481e+003,1.519761e+001
1.590445e+003,1.297410e+001
1.591409e+003,1.388482e+001
1.592373e+003,1.538925e+001
1.593338e+003,1.536159e+001
1.594302e+003,1.451144e+001
1.595266e+003,1.420677e+001
1.596230e+003,1.448299e+001
1.597194e+003,1.528425e+001
1.598159e+003,1.677602e+001
1.599123e+003,1.753819e+001
1.600087e+003,1.591670e+001
1.601051e+003,1.432277e+001
1.602016e+003,1.481301e+001
1.602980e+003,1.665301e+001
1.603944e+003,1.900784e+001
1.604908e+003,2.184836e+001
1.605873e+003,2.360356e+001
1.606837e+003,2.279646e+001
1.607801e+003,2.076366e+001
1.608765e+003,1.926629e+001
1.609729e+003,1.786977e+001
1.610694e+003,1.604967e+001
1.611658e+003,1.366934e+001
1.612622e+003,1.305453e+001
1.613586e+003,1.682848e+001
1.614551e+003,2.091245e+001
1.615515e+003,2.157607e+001
1.616479e+003,2.024654e+001
1.617443e+003,1.905907e+001
1.618408e+003,1.824752e+001
1.619372e+003,1.704280e+001
1.620336e+003,1.511758e+001
1.621300e+003,1.354301e+001
1.622265e+003,1.338248e+001
1.623229e+003,1.423074e+001
1.624193e+003,1.519760e+001
1.625157e+003,1.620648e+001
1.626121e+003,1.674815e+001
1.627086e+003,1.659923e+001
1.628050e+003,1.661156e+001
1.629014e+003,1.749051e+001
1.629978e+003,1.818227e+001
1.630943e+003,1.756477e+001
1.631907e+003,1.624362e+001
1.632871e+003,1.596906e+001
1.633835e+003,1.729723e+001
1.634800e+003,1.825092e+001
1.635764e+003,1.695449e+001
1.636728e+003,1.536211e+001
1.637692e+003,1.633342e+001
1.638656e+003,1.906347e+001
1.639621e+003,2.107839e+001
1.640585e+003,2.212634e+001
1.641549e+003,2.247271e+001
1.642513e+003,2.279883e+001
1.643478e+003,2.293228e+001
1.644442e+003,2.098414e+001
1.645406e+003,1.888031e+001
1.646370e+003,2.012697e+001
1.647335e+003,2.404613e+001
1.648299e+003,2.620468e+001
1.649263e+003,2.481442e+001
1.650227e+003,2.284795e+001
1.651192e+003,2.314144e+001
1.652156e+003,2.435449e+001
1.653120e+003,2.352827e+001
1.654084e+003,2.107485e+001
1.655048e+003,2.065625e+001
1.656013e+003,2.345037e+001
1.656977e+003,2.505010e+001
1.657941e+003,2.154085e+001
1.658905e+003,1.709698e+001
1.659870e+003,1.815789e+001
1.660834e+003,2.278533e+001
1.661798e+003,2.645016e+001
1.662762e+003,2.851929e+001
1.663727e+003,2.865381e+001
1.664691e+003,2.574793e+001
1.665655e+003,2.223935e+001
1.666619e+003,1.959328e+001
1.667583e+003,1.827675e+001
1.668548e+003,1.966946e+001
1.669512e+003,2.313062e+001
1.670476e+003,2.506889e+001
1.671440e+003,2.462206e+001
1.672405e+003,2.342352e+001
1.673369e+003,2.206260e+001
1.674333e+003,2.073702e+001
1.675297e+003,2.008353e+001
1.676262e+003,2.000109e+001
1.677226e+003,2.024105e+001
1.678190e+003,2.094484e+001
1.679154e+003,2.143508e+001
1.680119e+003,2.096502e+001
1.681083e+003,2.062582e+001
1.682047e+003,2.195467e+001
1.683011e+003,2.389853e+001
1.683975e+003,2.405029e+001
1.684940e+003,2.272672e+001
1.685904e+003,2.302078e+001
1.686868e+003,2.619029e+001
1.687832e+003,2.945125e+001
1.688797e+003,2.981609e+001
1.689761e+003,2.798749e+001
1.690725e+003,2.681496e+001
1.691689e+003,2.665489e+001
1.692654e+003,2.708090e+001
1.693618e+003,2.894534e+001
1.694582e+003,3.103808e+001
1.695546e+003,3.311752e+001
1.696510e+003,3.402913e+001
1.697475e+003,3.282619e+001
1.698439e+003,3.076054e+001
1.699403e+003,2.919802e+001
1.700367e+003,2.856148e+001
1.701332e+003,2.925137e+001
1.702296e+003,3.133867e+001
1.703260e+003,3.360880e+001
1.704224e+003,3.456863e+001
1.705189e+003,3.436044e+001
1.706153e+003,3.443628e+001
1.707117e+003,3.489000e+001
1.708081e+003,3.433104e+001
1.709046e+003,3.290582e+001
1.710010e+003,3.289114e+001
1.710974e+003,3.430470e+001
1.711938e+003,3.594521e+001
1.712902e+003,3.749123e+001
1.713867e+003,3.837628e+001
1.714831e+003,3.820751e+001
1.715795e+003,3.755334e+001
1.716759e+003,3.737623e+001
1.717724e+003,3.796404e+001
1.718688e+003,3.878477e+001
1.719652e+003,3.922032e+001
1.720616e+003,3.915413e+001
1.721581e+003,3.888121e+001
1.722545e+003,3.866081e+001
1.723509e+003,3.750256e+001
1.724473e+003,3.401064e+001
1.725438e+003,3.246155e+001
1.726402e+003,3.492583e+001
1.727366e+003,3.795271e+001
1.728330e+003,4.063596e+001
1.729294e+003,4.256081e+001
1.730259e+003,4.302560e+001
1.731223e+003,4.225181e+001
1.732187e+003,4.102442e+001
1.733151e+003,3.950304e+001
1.734116e+003,3.822424e+001
1.735080e+003,3.851430e+001
1.736044e+003,3.966967e+001
1.737008e+003,3.886411e+001
1.737973e+003,3.612627e+001
1.738937e+003,3.494135e+001
1.739901e+003,3.606120e+001
1.740865e+003,3.711338e+001
1.741829e+003,3.752940e+001
1.742794e+003,3.720472e+001
1.743758e+003,3.469255e+001
1.744722e+003,3.211522e+001
1.745686e+003,3.354711e+001
1.746651e+003,3.836855e+001
1.747615e+003,4.098102e+001
1.748579e+003,3.930731e+001
1.749543e+003,3.699971e+001
1.750508e+003,3.639995e+001
1.751472e+003,3.639297e+001
1.752436e+003,3.543576e+001
1.753400e+003,3.372905e+001
1.754365e+003,3.189089e+001
1.755329e+003,3.031702e+001
1.756293e+003,3.049001e+001
1.757257e+003,3.319522e+001
1.758221e+003,3.584699e+001
1.759186e+003,3.581683e+001
1.760150e+003,3.452345e+001
1.761114e+003,3.504196e+001
1.762078e+003,3.702149e+001
1.763043e+003,3.815479e+001
1.764007e+003,3.812244e+001
1.764971e+003,3.741148e+001
1.765935e+003,3.651668e+001
1.766900e+003,3.602162e+001
1.767864e+003,3.636050e+001
1.768828e+003,3.666076e+001
1.769792e+003,3.550089e+001
1.770756e+003,3.352189e+001
1.771721e+003,3.262353e+001
1.772685e+003,3.309762e+001
1.773649e+003,3.336799e+001
1.774613e+003,3.249012e+001
1.775578e+003,3.162515e+001
1.776542e+003,3.269910e+001
1.777506e+003,3.553997e+001
1.778470e+003,3.607477e+001
1.779435e+003,3.290920e+001
1.780399e+003,3.086261e+001
1.781363e+003,3.146484e+001
1.782327e+003,3.302807e+001
1.783292e+003,3.573067e+001
1.784256e+003,3.725745e+001
1.785220e+003,3.506598e+001
1.786184e+003,3.142677e+001
1.787148e+003,3.034122e+001
1.788113e+003,3.204713e+001
1.789077e+003,3.360359e+001
1.790041e+003,3.353011e+001
1.791005e+003,3.231415e+001
1.791970e+003,2.992534e+001
1.792934e+003,2.759087e+001
1.793898e+003,2.782312e+001
1.794862e+003,3.017239e+001
1.795827e+003,3.196957e+001
1.796791e+003,3.261002e+001
1.797755e+003,3.264091e+001
1.798719e+003,3.231056e+001
1.799683e+003,3.200703e+001
1.800648e+003,3.177571e+001
1.801612e+003,3.165312e+001
1.802576e+003,3.285298e+001
1.803540e+003,3.539448e+001
1.804505e+003,3.556045e+001
1.805469e+003,3.245628e+001
1.806433e+003,2.982839e+001
1.807397e+003,2.743215e+001
1.808362e+003,2.609757e+001
1.809326e+003,2.763844e+001
1.810290e+003,2.993181e+001
1.811254e+003,2.981511e+001
1.812219e+003,2.781769e+001
1.813183e+003,2.637705e+001
1.814147e+003,2.617415e+001
1.815111e+003,2.651839e+001
1.816075e+003,2.734629e+001
1.817040e+003,2.835103e+001
1.818004e+003,2.777148e+001
1.818968e+003,2.571766e+001
1.819932e+003,2.586893e+001
1.820897e+003,2.832752e+001
1.821861e+003,2.965472e+001
1.822825e+003,2.942274e+001
1.823789e+003,2.879416e+001
1.824754e+003,2.880244e+001
1.825718e+003,2.924964e+001
1.826682e+003,2.951576e+001
1.827646e+003,2.921104e+001
1.828610e+003,2.762893e+001
1.829575e+003,2.533694e+001
1.830539e+003,2.527341e+001
1.831503e+003,2.897285e+001
1.832467e+003,3.293835e+001
1.833432e+003,3.417150e+001
1.834396e+003,3.407252e+001
1.835360e+003,3.538517e+001
1.836324e+003,3.756546e+001
1.837289e+003,3.734525e+001
1.838253e+003,3.415654e+001
1.839217e+003,3.115816e+001
1.840181e+003,2.978017e+001
1.841146e+003,2.909933e+001
1.842110e+003,2.856670e+001
1.843074e+003,2.837057e+001
1.844038e+003,2.837276e+001
1.845002e+003,2.845090e+001
1.845967e+003,2.864739e+001
1.846931e+003,2.886478e+001
1.847895e+003,2.973019e+001
1.848859e+003,3.125542e+001
1.849824e+003,3.184260e+001
1.850788e+003,3.125066e+001
1.851752e+003,3.036083e+001
1.852716e+003,2.984748e+001
1.853681e+003,3.004765e+001
1.854645e+003,3.071755e+001
1.855609e+003,3.162875e+001
1.856573e+003,3.305595e+001
1.857537e+003,3.489272e+001
1.858502e+003,3.598419e+001
1.859466e+003,3.568067e+001
1.860430e+003,3.498300e+001
1.861394e+003,3.451893e+001
1.862359e+003,3.401044e+001
1.863323e+003,3.430274e+001
1.864287e+003,3.543588e+001
1.865251e+003,3.536140e+001
1.866216e+003,3.372382e+001
1.867180e+003,3.233803e+001
1.868144e+003,3.170488e+001
1.869108e+003,3.129550e+001
1.870073e+003,3.109420e+001
1.871037e+003,3.125919e+001
1.872001e+003,3.159498e+001
1.872965e+003,3.237304e+001
1.873929e+003,3.273717e+001
1.874894e+003,3.162312e+001
1.875858e+003,3.035758e+001
1.876822e+003,2.942020e+001
1.877786e+003,2.915714e+001
1.878751e+003,3.015172e+001
1.879715e+003,3.169827e+001
1.880679e+003,3.299330e+001
1.881643e+003,3.361404e+001
1.882608e+003,3.274889e+001
1.883572e+003,3.054983e+001
1.884536e+003,2.949867e+001
1.885500e+003,3.154227e+001
1.886464e+003,3.428472e+001
1.887429e+003,3.388461e+001
1.888393e+003,3.135025e+001
1.889357e+003,3.023118e+001
1.890321e+003,3.040144e+001
1.891286e+003,3.045415e+001
1.892250e+003,2.979931e+001
1.893214e+003,2.986066e+001
1.894178e+003,3.240794e+001
1.895143e+003,3.494148e+001
1.896107e+003,3.430764e+001
1.897071e+003,3.214452e+001
1.898035e+003,3.193294e+001
1.899000e+003,3.285883e+001
1.899964e+003,3.275642e+001
1.900928e+003,3.252029e+001
1.901892e+003,3.289063e+001
1.902856e+003,3.362395e+001
1.903821e+003,3.390424e+001
1.904785e+003,3.305032e+001
1.905749e+003,3.121058e+001
1.906713e+003,2.816901e+001
1.907678e+003,2.566138e+001
1.908642e+003,2.655735e+001
1.909606e+003,3.012899e+001
1.910570e+003,3.232223e+001
1.911535e+003,3.147787e+001
1.912499e+003,3.060803e+001
1.913463e+003,3.247148e+001
1.914427e+003,3.525530e+001
1.915391e+003,3.624292e+001
1.916356e+003,3.603550e+001
1.917320e+003,3.509170e+001
1.918284e+003,3.349185e+001
1.919248e+003,3.212157e+001
1.920213e+003,3.034492e+001
1.921177e+003,2.882191e+001
1.922141e+003,2.814168e+001
1.923105e+003,2.852329e+001
1.924070e+003,3.074629e+001
1.925034e+003,3.376032e+001
1.925998e+003,3.461245e+001
1.926962e+003,3.326476e+001
1.927927e+003,3.169070e+001
1.928891e+003,2.946340e+001
1.929855e+003,2.832974e+001
1.930819e+003,2.939142e+001
1.931783e+003,3.014213e+001
1.932748e+003,2.906821e+001
1.933712e+003,2.798730e+001
1.934676e+003,2.864798e+001
1.935640e+003,3.031586e+001
1.936605e+003,3.185506e+001
1.937569e+003,3.251016e+001
1.938533e+003,3.124647e+001
1.939497e+003,2.816222e+001
1.940462e+003,2.584814e+001
1.941426e+003,2.603957e+001
1.942390e+003,2.758661e+001
1.943354e+003,2.961241e+001
1.944318e+003,3.126391e+001
1.945283e+003,3.065829e+001
1.946247e+003,2.854803e+001
1.947211e+003,2.696618e+001
1.948175e+003,2.633246e+001
1.949140e+003,2.652951e+001
1.950104e+003,2.715578e+001
1.951068e+003,2.725520e+001
1.952032e+003,2.618984e+001
1.952997e+003,2.452850e+001
1.953961e+003,2.335722e+001
1.954925e+003,2.260343e+001
1.955889e+003,2.254302e+001
1.956854e+003,2.429708e+001
1.957818e+003,2.492110e+001
1.958782e+003,2.301326e+001
1.959746e+003,2.221249e+001
1.960710e+003,2.397028e+001
1.961675e+003,2.537433e+001
1.962639e+003,2.449201e+001
1.963603e+003,2.276308e+001
1.964567e+003,2.180414e+001
1.965532e+003,2.178943e+001
1.966496e+003,2.308759e+001
1.967460e+003,2.605515e+001
1.968424e+003,2.728535e+001
1.969389e+003,2.315357e+001
1.970353e+003,1.869534e+001
1.971317e+003,1.793877e+001
1.972281e+003,1.943051e+001
1.973245e+003,2.225247e+001
1.974210e+003,2.562553e+001
1.975174e+003,2.806850e+001
1.976138e+003,2.922314e+001
1.977102e+003,2.894110e+001
1.978067e+003,2.726925e+001
1.979031e+003,2.621941e+001
1.979995e+003,2.784196e+001
1.980959e+003,2.999840e+001
1.981924e+003,2.836518e+001
1.982888e+003,2.396465e+001
1.983852e+003,2.249649e+001
1.984816e+003,2.390989e+001
1.985781e+003,2.406190e+001
1.986745e+003,2.256895e+001
1.987709e+003,2.211185e+001
1.988673e+003,2.314189e+001
1.989637e+003,2.518483e+001
1.990602e+003,2.880267e+001
1.991566e+003,3.186492e+001
1.992530e+003,3.124640e+001
1.993494e+003,2.810587e+001
1.994459e+003,2.655343e+001
1.995423e+003,2.659402e+001
1.996387e+003,2.641513e+001
1.997351e+003,2.569910e+001
1.998316e+003,2.466265e+001
1.999280e+003,2.358167e+001
2.000244e+003,2.298006e+001
2.001208e+003,2.286199e+001
2.002172e+003,2.332169e+001
2.003137e+003,2.456469e+001
2.004101e+003,2.592554e+001
2.005065e+003,2.644456e+001
2.006029e+003,2.635856e+001
2.006994e+003,2.717651e+001
2.007958e+003,2.942902e+001
2.008922e+003,3.076232e+001
2.009886e+003,2.924596e+001
2.010851e+003,2.767981e+001
2.011815e+003,2.907382e+001
2.012779e+003,3.112922e+001
2.013743e+003,2.987293e+001
2.014708e+003,2.654482e+001
2.015672e+003,2.529413e+001
2.016636e+003,2.667429e+001
2.017600e+003,2.816642e+001
2.018564e+003,2.845709e+001
2.019529e+003,2.823521e+001
2.020493e+003,2.834969e+001
2.021457e+003,2.901131e+001
2.022421e+003,3.042473e+001
2.023386e+003,3.196951e+001
2.024350e+003,3.114912e+001
2.025314e+003,2.811293e+001
2.026278e+003,2.577257e+001
2.027243e+003,2.452773e+001
2.028207e+003,2.559846e+001
2.029171e+003,3.001559e+001
2.030135e+003,3.262994e+001
2.031099e+003,2.891691e+001
2.032064e+003,2.363687e+001
2.033028e+003,2.410905e+001
2.033992e+003,2.857423e+001
2.034956e+003,3.000262e+001
2.035921e+003,2.879877e+001
2.036885e+003,2.772163e+001
2.037849e+003,2.595226e+001
2.038813e+003,2.606491e+001
2.039778e+003,2.845860e+001
2.040742e+003,2.960741e+001
2.041706e+003,2.844827e+001
2.042670e+003,2.716481e+001
2.043635e+003,2.768618e+001
2.044599e+003,2.882511e+001
2.045563e+003,2.833657e+001
2.046527e+003,2.654109e+001
2.047491e+003,2.601626e+001
2.048456e+003,2.795940e+001
2.049420e+003,2.884122e+001
2.050384e+003,2.526656e+001
2.051348e+003,2.203434e+001
2.052313e+003,2.235266e+001
2.053277e+003,2.374931e+001
2.054241e+003,2.471123e+001
2.055205e+003,2.545215e+001
2.056170e+003,2.559488e+001
2.057134e+003,2.510640e+001
2.058098e+003,2.518642e+001
2.059062e+003,2.632114e+001
2.060027e+003,2.691138e+001
2.060991e+003,2.567632e+001
2.061955e+003,2.504718e+001
2.062919e+003,2.856129e+001
2.063884e+003,3.234820e+001
2.064848e+003,3.094023e+001
2.065812e+003,2.767754e+001
2.066776e+003,2.859345e+001
2.067740e+003,3.199828e+001
2.068705e+003,3.212193e+001
2.069669e+003,2.867626e+001
2.070633e+003,2.649306e+001
2.071597e+003,2.747510e+001
2.072562e+003,2.790533e+001
2.073526e+003,2.485889e+001
2.074490e+003,2.117771e+001
2.075454e+003,2.062344e+001
2.076418e+003,2.217184e+001
2.077383e+003,2.342368e+001
2.078347e+003,2.393916e+001
2.079311e+003,2.396734e+001
2.080275e+003,2.454394e+001
2.081240e+003,2.443715e+001
2.082204e+003,2.251091e+001
2.083168e+003,2.152164e+001
2.084132e+003,2.319347e+001
2.085096e+003,2.514447e+001
2.086061e+003,2.505491e+001
2.087025e+003,2.403696e+001
2.087989e+003,2.450077e+001
2.088953e+003,2.653327e+001
2.089918e+003,2.578374e+001
2.090882e+003,2.101817e+001
2.091846e+003,1.883923e+001
2.092810e+003,2.091194e+001
2.093775e+003,2.265686e+001
2.094739e+003,2.215002e+001
2.095703e+003,2.122479e+001
2.096667e+003,2.104459e+001
2.097632e+003,2.142494e+001
2.098596e+003,2.265157e+001
2.099560e+003,2.463865e+001
2.100524e+003,2.525971e+001
2.101489e+003,2.341064e+001
2.102453e+003,2.248792e+001
2.103417e+003,2.415456e+001
2.104381e+003,2.474004e+001
2.105345e+003,2.387334e+001
2.106310e+003,2.240026e+001
2.107274e+003,1.916670e+001
2.108238e+003,1.701269e+001
2.109202e+003,1.867168e+001
2.110167e+003,2.165929e+001
2.111131e+003,2.251601e+001
2.112095e+003,2.131134e+001
2.113059e+003,2.006652e+001
2.114023e+003,1.987458e+001
2.114988e+003,2.103031e+001
2.115952e+003,2.365945e+001
2.116916e+003,2.459364e+001
2.117880e+003,2.196964e+001
2.118845e+003,1.946296e+001
2.119809e+003,2.034124e+001
2.120773e+003,2.236864e+001
2.121737e+003,2.270148e+001
2.122702e+003,2.171104e+001
2.123666e+003,2.019443e+001
2.124630e+003,1.864701e+001
2.125594e+003,1.903613e+001
2.126559e+003,2.216189e+001
2.127523e+003,2.317293e+001
2.128487e+003,1.861544e+001
2.129451e+003,1.439330e+001
2.130416e+003,1.272800e+001
2.131380e+003,1.276003e+001
2.132344e+003,1.517416e+001
2.133308e+003,1.801599e+001
2.134272e+003,1.878599e+001
2.135237e+003,1.800687e+001
2.136201e+003,1.747265e+001
2.137165e+003,1.768887e+001
2.138129e+003,1.843348e+001
2.139094e+003,1.968220e+001
2.140058e+003,2.029580e+001
2.141022e+003,1.871655e+001
2.141986e+003,1.662247e+001
2.142950e+003,1.575877e+001
2.143915e+003,1.550745e+001
2.144879e+003,1.493046e+001
2.145843e+003,1.422903e+001
2.146807e+003,1.390848e+001
2.147772e+003,1.452190e+001
2.148736e+003,1.708493e+001
2.149700e+003,2.058920e+001
2.150664e+003,2.164285e+001
2.151629e+003,1.903857e+001
2.152593e+003,1.556107e+001
2.153557e+003,1.323721e+001
2.154521e+003,1.212340e+001
2.155486e+003,1.232562e+001
2.156450e+003,1.280150e+001
2.157414e+003,1.228325e+001
2.158378e+003,1.144763e+001
2.159343e+003,1.144284e+001
2.160307e+003,1.225899e+001
2.161271e+003,1.346950e+001
2.162235e+003,1.472501e+001
2.163199e+003,1.589014e+001
2.164164e+003,1.686901e+001
2.165128e+003,1.634332e+001
2.166092e+003,1.267519e+001
2.167056e+003,9.264763e+000
2.168021e+003,1.158806e+001
2.168985e+003,1.591021e+001
2.169949e+003,1.559084e+001
2.170913e+003,1.260320e+001
2.171877e+003,1.136717e+001
2.172842e+003,1.220367e+001
2.173806e+003,1.411672e+001
2.174770e+003,1.620477e+001
2.175734e+003,1.649817e+001
2.176699e+003,1.423726e+001
2.177663e+003,1.186894e+001
2.178627e+003,1.166500e+001
2.179591e+003,1.252065e+001
2.180556e+003,1.272410e+001
2.181520e+003,1.218965e+001
2.182484e+003,1.084375e+001
2.183448e+003,9.516724e+000
2.184413e+003,1.068616e+001
2.185377e+003,1.339775e+001
2.186341e+003,1.305570e+001
2.187305e+003,9.236000e+000
2.188270e+003,6.012695e+000
2.189234e+003,5.383278e+000
2.190198e+003,6.353790e+000
2.191162e+003,7.799232e+000
2.192126e+003,8.563293e+000
2.193091e+003,7.450539e+000
2.194055e+003,5.435646e+000
2.195019e+003,3.949936e+000
2.195983e+003,3.413467e+000
2.196948e+003,5.015068e+000
2.197912e+003,7.931206e+000
2.198876e+003,8.986458e+000
2.199840e+003,7.732887e+000
2.200804e+003,5.835594e+000
2.201769e+003,4.158104e+000
2.202733e+003,3.639809e+000
2.203697e+003,5.211555e+000
2.204661e+003,8.199951e+000
2.205626e+003,1.231458e+001
2.206590e+003,1.588943e+001
2.207554e+003,1.401727e+001
2.208518e+003,8.731735e+000
2.209483e+003,6.663078e+000
2.210447e+003,7.328629e+000
2.211411e+003,6.575066e+000
2.212375e+003,4.370224e+000
2.213340e+003,4.539421e+000
2.214304e+003,7.917740e+000
2.215268e+003,1.046258e+001
2.216232e+003,9.420769e+000
2.217197e+003,6.406799e+000
2.218161e+003,2.995453e+000
2.219125e+003,6.359406e-001
2.220089e+003,2.766556e+000
2.221053e+003,7.441612e+000
2.222018e+003,9.277893e+000
2.222982e+003,8.588791e+000
2.223946e+003,8.417648e+000
2.224910e+003,9.206482e+000
2.225875e+003,9.000343e+000
2.226839e+003,7.488426e+000
2.227803e+003,7.039154e+000
2.228767e+003,8.651299e+000
2.229731e+003,1.001730e+001
2.230696e+003,9.199600e+000
2.231660e+003,7.782799e+000
2.232624e+003,9.082077e+000
2.233588e+003,1.090732e+001
2.234553e+003,7.606346e+000
2.235517e+003,2.097443e+000
2.236481e+003,0.000000e+000
2.237445e+003,8.572159e-001
2.238410e+003,3.381752e+000
2.239374e+003,6.771416e+000
2.240338e+003,8.905777e+000
2.241302e+003,8.922119e+000
2.242267e+003,7.481750e+000
2.243231e+003,4.803238e+000
2.244195e+003,2.685165e+000
2.245159e+003,2.983246e+000
2.246124e+003,4.345184e+000
2.247088e+003,5.847832e+000
2.248052e+003,6.928123e+000
2.249016e+003,7.198685e+000
2.249980e+003,6.820885e+000
2.250945e+003,5.660995e+000
2.251909e+003,4.165184e+000
2.252873e+003,2.571976e+000
2.253837e+003,1.064903e+000
2.254802e+003,1.443161e+000
2.255766e+003,4.956444e+000
2.256730e+003,7.872215e+000
2.257694e+003,6.697845e+000
2.258658e+003,4.661194e+000
2.259623e+003,3.684677e+000
2.260587e+003,3.673866e+000
2.261551e+003,5.665581e+000
2.262515e+003,7.815086e+000
2.263480e+003,7.479805e+000
2.264444e+003,5.934700e+000
2.265408e+003,5.692963e+000
2.266372e+003,6.442688e+000
2.267337e+003,6.029831e+000
2.268301e+003,3.997307e+000
2.269265e+003,3.135208e+000
2.270229e+003,6.516647e+000
2.271194e+003,9.651405e+000
2.272158e+003,7.940781e+000
2.273122e+003,5.834175e+000
2.274086e+003,6.629677e+000
2.275051e+003,8.219818e+000
2.276015e+003,9.689438e+000
2.276979e+003,1.089637e+001
2.277943e+003,1.131792e+001
2.278907e+003,1.091216e+001
2.279872e+003,9.439880e+000
2.280836e+003,6.819725e+000
2.281800e+003,6.034676e+000
2.282764e+003,9.214180e+000
2.283729e+003,1.121023e+001
2.284693e+003,9.915703e+000
2.285657e+003,1.001585e+001
2.286621e+003,1.316533e+001
2.287585e+003,1.535260e+001
2.288550e+003,1.481809e+001
2.289514e+003,1.371011e+001
2.290478e+003,1.374417e+001
2.291442e+003,1.432238e+001
2.292407e+003,1.415414e+001
2.293371e+003,1.309402e+001
2.294335e+003,1.143619e+001
2.295299e+003,8.599113e+000
2.296264e+003,8.314362e+000
2.297228e+003,1.310152e+001
2.298192e+003,1.502793e+001
2.299156e+003,1.245447e+001
2.300121e+003,1.056682e+001
2.301085e+003,9.800705e+000
2.302049e+003,1.071924e+001
2.303013e+003,1.501009e+001
2.303978e+003,1.908673e+001
2.304942e+003,1.839258e+001
2.305906e+003,1.523470e+001
2.306870e+003,1.535473e+001
2.307834e+003,1.827543e+001
2.308799e+003,1.929161e+001
2.309763e+003,1.847986e+001
2.310727e+003,1.944169e+001
2.311691e+003,2.208871e+001
2.312656e+003,2.330984e+001
2.313620e+003,2.254974e+001
2.314584e+003,2.170132e+001
2.315548e+003,2.153091e+001
2.316512e+003,2.123447e+001
2.317477e+003,2.051740e+001
2.318441e+003,2.047288e+001
2.319405e+003,2.181980e+001
2.320369e+003,2.421489e+001
2.321334e+003,2.773451e+001
2.322298e+003,3.119464e+001
2.323262e+003,3.184198e+001
2.324226e+003,3.154591e+001
2.325191e+003,3.477037e+001
2.326155e+003,4.040976e+001
2.327119e+003,4.436252e+001
2.328083e+003,4.559068e+001
2.329048e+003,4.474966e+001
2.330012e+003,4.278230e+001
2.330976e+003,4.125893e+001
2.331940e+003,4.046519e+001
2.332905e+003,3.987965e+001
2.333869e+003,4.000085e+001
2.334833e+003,4.065875e+001
2.335797e+003,4.142239e+001
2.336761e+003,4.277753e+001
2.337726e+003,4.518970e+001
2.338690e+003,4.729774e+001
2.339654e+003,4.812241e+001
2.340618e+003,4.808534e+001
2.341583e+003,4.680086e+001
2.342547e+003,4.532516e+001
2.343511e+003,4.761968e+001
2.344475e+003,5.456998e+001
2.345439e+003,6.028727e+001
2.346404e+003,6.284344e+001
2.347368e+003,6.338107e+001
2.348332e+003,6.018385e+001
2.349296e+003,5.916273e+001
2.350261e+003,6.527103e+001
2.351225e+003,7.152979e+001
2.352189e+003,7.177472e+001
2.353153e+003,7.017957e+001
2.354118e+003,7.174123e+001
2.355082e+003,7.495905e+001
2.356046e+003,7.684429e+001
2.357010e+003,7.800977e+001
2.357975e+003,7.981393e+001
2.358939e+003,8.208393e+001
2.359903e+003,8.514624e+001
2.360867e+003,8.858492e+001
2.361832e+003,9.092863e+001
2.362796e+003,9.284689e+001
2.363760e+003,9.437184e+001
2.364724e+003,9.544016e+001
2.365688e+003,9.805627e+001
2.366653e+003,1.027750e+002
2.367617e+003,1.072632e+002
2.368581e+003,1.097062e+002
2.369545e+003,1.109859e+002
2.370510e+003,1.125476e+002
2.371474e+003,1.145772e+002
2.372438e+003,1.169426e+002
2.373402e+003,1.193102e+002
2.374366e+003,1.207419e+002
2.375331e+003,1.216129e+002
2.376295e+003,1.237190e+002
2.377259e+003,1.269578e+002
2.378223e+003,1.295741e+002
2.379188e+003,1.309857e+002
2.380152e+003,1.316630e+002
2.381116e+003,1.319744e+002
2.382080e+003,1.322740e+002
2.383045e+003,1.324773e+002
2.384009e+003,1.330908e+002
2.384973e+003,1.352551e+002
2.385937e+003,1.376993e+002
2.386902e+003,1.398582e+002
2.387866e+003,1.418729e+002
2.388830e+003,1.425850e+002
2.389794e+003,1.426059e+002
2.390759e+003,1.432121e+002
2.391723e+003,1.443136e+002
2.392687e+003,1.460820e+002
2.393651e+003,1.487573e+002
2.394615e+003,1.503044e+002
2.395580e+003,1.493835e+002
2.396544e+003,1.492106e+002
2.397508e+003,1.503635e+002
2.398472e+003,1.518542e+002
2.399437e+003,1.551696e+002
2.400401e+003,1.571749e+002
2.401365e+003,1.556137e+002
2.402329e+003,1.541485e+002
2.403293e+003,1.550715e+002
2.404258e+003,1.566242e+002
2.405222e+003,1.574444e+002
2.406186e+003,1.575941e+002
2.407150e+003,1.561571e+002
2.408115e+003,1.536189e+002
2.409079e+003,1.545893e+002
2.410043e+003,1.587979e+002
2.411007e+003,1.610407e+002
2.411972e+003,1.615239e+002
2.412936e+003,1.630254e+002
2.413900e+003,1.653970e+002
2.414864e+003,1.668190e+002
2.415829e+003,1.671925e+002
2.416793e+003,1.667774e+002
2.417757e+003,1.655694e+002
2.418721e+003,1.655297e+002
2.419686e+003,1.688436e+002
2.420650e+003,1.720389e+002
2.421614e+003,1.701575e+002
2.422578e+003,1.674702e+002
2.423542e+003,1.684928e+002
2.424507e+003,1.706998e+002
2.425471e+003,1.723073e+002
2.426435e+003,1.734843e+002
2.427399e+003,1.736874e+002
2.428364e+003,1.729828e+002
2.429328e+003,1.729321e+002
2.430292e+003,1.737568e+002
2.431256e+003,1.729888e+002
2.432220e+003,1.697393e+002
2.433185e+003,1.679998e+002
2.434149e+003,1.687894e+002
2.435113e+003,1.690254e+002
2.436077e+003,1.689336e+002
2.437042e+003,1.682466e+002
2.438006e+003,1.669014e+002
2.438970e+003,1.647985e+002
2.439934e+003,1.613699e+002
2.440899e+003,1.588759e+002
2.441863e+003,1.595527e+002
2.442827e+003,1.613644e+002
2.443791e+003,1.608960e+002
2.444756e+003,1.586863e+002
2.445720e+003,1.568595e+002
2.446684e+003,1.555702e+002
2.447648e+003,1.563597e+002
2.448613e+003,1.581281e+002
2.449577e+003,1.554475e+002
2.450541e+003,1.496467e+002
2.451505e+003,1.468854e+002
2.452469e+003,1.474384e+002
2.453434e+003,1.469631e+002
2.454398e+003,1.439426e+002
2.455362e+003,1.412877e+002
2.456326e+003,1.415005e+002
2.457291e+003,1.430522e+002
2.458255e+003,1.453982e+002
2.459219e+003,1.459277e+002
2.460183e+003,1.406843e+002
2.461147e+003,1.352204e+002
2.462112e+003,1.345942e+002
2.463076e+003,1.351251e+002
2.464040e+003,1.322074e+002
2.465004e+003,1.286368e+002
2.465969e+003,1.301161e+002
2.466933e+003,1.339325e+002
2.467897e+003,1.331110e+002
2.468861e+003,1.279279e+002
2.469826e+003,1.245452e+002
2.470790e+003,1.233113e+002
2.471754e+003,1.224950e+002
2.472718e+003,1.224205e+002
2.473683e+003,1.240558e+002
2.474647e+003,1.267006e+002
2.475611e+003,1.262989e+002
2.476575e+003,1.227498e+002
2.477540e+003,1.210919e+002
2.478504e+003,1.229539e+002
2.479468e+003,1.240018e+002
2.480432e+003,1.213632e+002
2.481396e+003,1.178326e+002
2.482361e+003,1.162149e+002
2.483325e+003,1.158802e+002
2.484289e+003,1.155068e+002
2.485253e+003,1.150891e+002
2.486218e+003,1.152638e+002
2.487182e+003,1.153857e+002
2.488146e+003,1.155392e+002
2.489110e+003,1.152943e+002
2.490074e+003,1.131002e+002
2.491039e+003,1.102728e+002
2.492003e+003,1.099412e+002
2.492967e+003,1.113890e+002
2.493931e+003,1.114875e+002
2.494896e+003,1.106881e+002
2.495860e+003,1.098316e+002
2.496824e+003,1.087862e+002
2.497788e+003,1.089153e+002
2.498753e+003,1.103284e+002
2.499717e+003,1.106956e+002
2.500681e+003,1.095983e+002
2.501645e+003,1.078940e+002
2.502610e+003,1.057775e+002
2.503574e+003,1.039278e+002
2.504538e+003,1.032144e+002
2.505502e+003,1.040637e+002
2.506467e+003,1.068135e+002
2.507431e+003,1.096176e+002
2.508395e+003,1.108902e+002
2.509359e+003,1.109911e+002
2.510323e+003,1.092382e+002
2.511288e+003,1.071535e+002
2.512252e+003,1.066842e+002
2.513216e+003,1.072980e+002
2.514180e+003,1.082293e+002
2.515145e+003,1.091704e+002
2.516109e+003,1.098569e+002
2.517073e+003,1.101181e+002
2.518037e+003,1.086157e+002
2.519001e+003,1.039411e+002
2.519966e+003,1.023732e+002
2.520930e+003,1.054824e+002
2.521894e+003,1.072380e+002
2.522858e+003,1.069914e+002
2.523823e+003,1.058960e+002
2.524787e+003,1.039354e+002
2.525751e+003,1.039523e+002
2.526715e+003,1.073266e+002
2.527680e+003,1.100933e+002
2.528644e+003,1.093468e+002
2.529608e+003,1.078166e+002
2.530572e+003,1.082416e+002
2.531537e+003,1.087556e+002
2.532501e+003,1.066016e+002
2.533465e+003,1.044041e+002
2.534429e+003,1.063873e+002
2.535394e+003,1.095618e+002
2.536358e+003,1.097997e+002
2.537322e+003,1.078495e+002
2.538286e+003,1.048277e+002
2.539250e+003,1.019182e+002
2.540215e+003,1.009485e+002
2.541179e+003,1.018713e+002
2.542143e+003,1.038869e+002
2.543107e+003,1.081314e+002
2.544072e+003,1.103326e+002
2.545036e+003,1.093849e+002
2.546000e+003,1.075246e+002
2.546964e+003,1.046424e+002
2.547928e+003,1.018400e+002
2.548893e+003,9.929413e+001
2.549857e+003,9.807700e+001
2.550821e+003,9.871638e+001
2.551785e+003,1.004915e+002
2.552750e+003,1.028632e+002
2.553714e+003,1.036354e+002
2.554678e+003,1.000715e+002
2.555642e+003,9.706036e+001
2.556607e+003,1.004631e+002
2.557571e+003,1.043102e+002
2.558535e+003,1.040647e+002
2.559499e+003,1.015844e+002
2.560464e+003,9.777582e+001
2.561428e+003,9.472019e+001
2.562392e+003,9.426505e+001
2.563356e+003,9.478403e+001
2.564321e+003,9.379688e+001
2.565285e+003,9.201249e+001
2.566249e+003,9.107645e+001
2.567213e+003,9.057097e+001
2.568177e+003,9.073256e+001
2.569142e+003,9.175597e+001
2.570106e+003,9.079565e+001
2.571070e+003,8.838044e+001
2.572034e+003,8.831790e+001
2.572999e+003,9.061800e+001
2.573963e+003,9.085536e+001
2.574927e+003,8.804141e+001
2.575891e+003,8.619678e+001
2.576855e+003,8.669988e+001
2.577820e+003,8.594726e+001
2.578784e+003,8.237221e+001
2.579748e+003,7.955341e+001
2.580712e+003,7.990514e+001
2.581677e+003,8.043725e+001
2.582641e+003,7.818178e+001
2.583605e+003,7.651055e+001
2.584569e+003,7.936107e+001
2.585534e+003,8.116998e+001
2.586498e+003,7.774929e+001
2.587462e+003,7.396733e+001
2.588426e+003,7.479447e+001
2.589391e+003,7.720391e+001
2.590355e+003,7.586483e+001
2.591319e+003,7.259119e+001
2.592283e+003,7.333887e+001
2.593248e+003,7.631502e+001
2.594212e+003,7.596092e+001
2.595176e+003,7.348533e+001
2.596140e+003,7.105045e+001
2.597104e+003,6.947045e+001
2.598069e+003,7.050259e+001
2.599033e+003,7.300264e+001
2.599997e+003,7.381441e+001
2.600961e+003,7.272160e+001
2.601926e+003,7.119923e+001
2.602890e+003,6.906446e+001
2.603854e+003,6.792622e+001
2.604818e+003,6.837235e+001
2.605782e+003,6.754971e+001
2.606747e+003,6.536232e+001
2.607711e+003,6.365621e+001
2.608675e+003,6.277148e+001
2.609639e+003,6.170053e+001
2.610604e+003,6.017734e+001
2.611568e+003,6.011650e+001
2.612532e+003,6.249892e+001
2.613496e+003,6.408875e+001
2.614461e+003,6.143896e+001
2.615425e+003,5.854243e+001
2.616389e+003,6.023637e+001
2.617353e+003,6.285428e+001
2.618318e+003,6.515983e+001
2.619282e+003,6.552221e+001
2.620246e+003,6.070627e+001
2.621210e+003,5.646016e+001
2.622175e+003,5.788546e+001
2.623139e+003,6.134459e+001
2.624103e+003,6.309951e+001
2.625067e+003,6.294478e+001
2.626031e+003,6.156405e+001
2.626996e+003,6.020781e+001
2.627960e+003,5.916794e+001
2.628924e+003,5.791396e+001
2.629888e+003,5.839433e+001
2.630853e+003,5.971210e+001
2.631817e+003,5.975450e+001
2.632781e+003,5.953252e+001
2.633745e+003,5.870007e+001
2.634709e+003,5.671201e+001
2.635674e+003,5.504286e+001
2.636638e+003,5.433052e+001
2.637602e+003,5.456082e+001
2.638566e+003,5.717390e+001
2.639531e+003,5.876086e+001
2.640495e+003,5.615039e+001
2.641459e+003,5.452669e+001
2.642423e+003,5.494091e+001
2.643388e+003,5.502336e+001
2.644352e+003,5.390911e+001
2.645316e+003,5.360719e+001
2.646280e+003,5.476877e+001
2.647245e+003,5.588742e+001
2.648209e+003,5.675040e+001
2.649173e+003,5.703284e+001
2.650137e+003,5.529289e+001
2.651102e+003,5.309269e+001
2.652066e+003,5.021880e+001
2.653030e+003,4.816073e+001
2.653994e+003,5.162391e+001
2.654958e+003,5.490278e+001
2.655923e+003,5.300014e+001
2.656887e+003,5.020373e+001
2.657851e+003,4.882920e+001
2.658815e+003,4.805906e+001
2.659780e+003,4.782794e+001
2.660744e+003,4.796835e+001
2.661708e+003,4.786446e+001
2.662672e+003,4.793973e+001
2.663636e+003,4.998791e+001
2.664601e+003,5.247445e+001
2.665565e+003,4.949049e+001
2.666529e+003,4.415597e+001
2.667493e+003,4.293908e+001
2.668458e+003,4.488467e+001
2.669422e+003,4.767641e+001
2.670386e+003,4.956492e+001
2.671350e+003,4.897906e+001
2.672315e+003,4.690355e+001
2.673279e+003,4.510594e+001
2.674243e+003,4.284008e+001
2.675207e+003,4.165505e+001
2.676172e+003,4.200587e+001
2.677136e+003,4.234559e+001
2.678100e+003,4.297873e+001
2.679064e+003,4.269385e+001
2.680029e+003,4.098448e+001
2.680993e+003,4.078857e+001
2.681957e+003,4.285487e+001
2.682921e+003,4.407762e+001
2.683885e+003,4.280894e+001
2.684850e+003,4.048839e+001
2.685814e+003,3.874043e+001
2.686778e+003,3.737346e+001
2.687742e+003,3.395744e+001
2.688707e+003,3.327361e+001
2.689671e+003,3.803724e+001
2.690635e+003,4.105901e+001
2.691599e+003,4.160301e+001
2.692563e+003,3.979041e+001
2.693528e+003,3.525411e+001
2.694492e+003,3.219398e+001
2.695456e+003,3.347248e+001
2.696420e+003,3.618996e+001
2.697385e+003,3.766576e+001
2.698349e+003,3.809257e+001
2.699313e+003,3.739220e+001
2.700277e+003,3.673773e+001
2.701242e+003,3.651450e+001
2.702206e+003,3.604488e+001
2.703170e+003,3.570406e+001
2.704134e+003,3.487279e+001
2.705099e+003,3.266604e+001
2.706063e+003,3.081420e+001
2.707027e+003,3.091150e+001
2.707991e+003,3.173678e+001
2.708956e+003,3.070544e+001
2.709920e+003,2.839240e+001
2.710884e+003,2.862605e+001
2.711848e+003,3.054948e+001
2.712813e+003,3.092140e+001
2.713777e+003,3.051338e+001
2.714741e+003,2.917147e+001
2.715705e+003,2.680132e+001
2.716669e+003,2.564079e+001
2.717634e+003,2.568064e+001
2.718598e+003,2.479705e+001
2.719562e+003,2.381619e+001
2.720526e+003,2.469716e+001
2.721490e+003,2.570155e+001
2.722455e+003,2.556101e+001
2.723419e+003,2.532929e+001
2.724383e+003,2.486163e+001
2.725347e+003,2.436622e+001
2.726312e+003,2.523557e+001
2.727276e+003,2.624104e+001
2.728240e+003,2.498883e+001
2.729204e+003,2.259626e+001
2.730169e+003,2.081400e+001
2.731133e+003,1.910841e+001
2.732097e+003,1.826234e+001
2.733061e+003,1.933333e+001
2.734026e+003,1.884477e+001
2.734990e+003,1.762503e+001
2.735954e+003,1.771938e+001
2.736918e+003,1.789481e+001
2.737883e+003,2.036121e+001
2.738847e+003,2.497820e+001
2.739811e+003,2.585082e+001
2.740775e+003,2.193660e+001
2.741740e+003,1.839708e+001
2.742704e+003,1.814048e+001
2.743668e+003,1.906138e+001
2.744632e+003,1.922675e+001
2.745596e+003,1.954630e+001
2.746561e+003,1.974856e+001
2.747525e+003,1.902786e+001
2.748489e+003,1.899279e+001
2.749453e+003,1.805338e+001
2.750417e+003,1.541720e+001
2.751382e+003,1.503501e+001
2.752346e+003,1.826367e+001
2.753310e+003,2.075932e+001
2.754274e+003,1.952763e+001
2.755239e+003,1.772936e+001
2.756203e+003,1.881222e+001
2.757167e+003,2.020154e+001
2.758131e+003,1.974945e+001
2.759096e+003,1.807393e+001
2.760060e+003,1.379150e+001
2.761024e+003,1.134068e+001
2.761988e+003,1.547318e+001
2.762953e+003,1.887371e+001
2.763917e+003,1.680685e+001
2.764881e+003,1.372414e+001
2.765845e+003,1.375544e+001
2.766810e+003,1.549148e+001
2.767774e+003,1.784576e+001
2.768738e+003,1.987286e+001
2.769702e+003,1.860565e+001
2.770667e+003,1.699966e+001
2.771631e+003,1.802882e+001
2.772595e+003,1.860547e+001
2.773559e+003,1.692060e+001
2.774523e+003,1.515110e+001
2.775488e+003,1.564022e+001
2.776452e+003,1.766408e+001
2.777416e+003,1.830338e+001
2.778380e+003,1.642017e+001
2.779344e+003,1.612529e+001
2.780309e+003,1.800621e+001
2.781273e+003,1.616571e+001
2.782237e+003,1.417746e+001
2.783201e+003,1.687386e+001
2.784166e+003,1.919491e+001
2.785130e+003,1.825414e+001
2.786094e+003,1.588673e+001
2.787058e+003,1.332703e+001
2.788023e+003,1.183211e+001
2.788987e+003,1.223502e+001
2.789951e+003,1.339003e+001
2.790915e+003,1.389576e+001
2.791880e+003,1.401942e+001
2.792844e+003,1.401323e+001
2.793808e+003,1.427962e+001
2.794772e+003,1.481026e+001
2.795737e+003,1.457797e+001
2.796701e+003,1.391272e+001
2.797665e+003,1.379453e+001
2.798629e+003,1.519633e+001
2.799594e+003,1.768334e+001
2.800558e+003,1.866439e+001
2.801522e+003,1.782203e+001
2.802486e+003,1.643983e+001
2.803450e+003,1.372653e+001
2.804415e+003,1.231525e+001
2.805379e+003,1.228381e+001
2.806343e+003,1.325427e+001
2.807307e+003,1.600972e+001
2.808271e+003,1.610448e+001
2.809236e+003,1.277934e+001
2.810200e+003,1.173003e+001
2.811164e+003,1.360365e+001
2.812128e+003,1.254675e+001
2.813093e+003,8.322739e+000
2.814057e+003,9.197144e+000
2.815021e+003,1.376583e+001
2.815985e+003,1.510059e+001
2.816950e+003,1.536395e+001
2.817914e+003,1.546840e+001
2.818878e+003,1.476170e+001
2.819842e+003,1.344699e+001
2.820807e+003,1.269638e+001
2.821771e+003,1.432048e+001
2.822735e+003,1.703389e+001
2.823699e+003,1.795441e+001
2.824664e+003,1.745588e+001
2.825628e+003,1.621783e+001
2.826592e+003,1.416209e+001
2.827556e+003,1.438162e+001
2.828521e+003,1.591397e+001
2.829485e+003,1.477416e+001
2.830449e+003,1.203714e+001
2.831413e+003,1.119326e+001
2.832377e+003,1.197086e+001
2.833342e+003,1.347083e+001
2.834306e+003,1.530424e+001
2.835270e+003,1.527835e+001
2.836234e+003,1.255168e+001
2.837198e+003,1.144227e+001
2.838163e+003,1.320928e+001
2.839127e+003,1.392254e+001
2.840091e+003,1.346320e+001
2.841055e+003,1.308976e+001
2.842020e+003,1.266604e+001
2.842984e+003,1.352706e+001
2.843948e+003,1.560795e+001
2.844912e+003,1.670747e+001
2.845877e+003,1.653888e+001
2.846841e+003,1.661182e+001
2.847805e+003,1.731887e+001
2.848769e+003,1.730389e+001
2.849734e+003,1.568414e+001
2.850698e+003,1.511889e+001
2.851662e+003,1.576161e+001
2.852626e+003,1.502814e+001
2.853591e+003,1.327868e+001
2.854555e+003,1.271088e+001
2.855519e+003,1.312856e+001
2.856483e+003,1.258247e+001
2.857448e+003,1.084552e+001
2.858412e+003,1.056252e+001
2.859376e+003,1.327818e+001
2.860340e+003,1.423917e+001
2.861304e+003,1.173293e+001
2.862269e+003,1.015214e+001
2.863233e+003,8.924026e+000
2.864197e+003,1.006860e+001
2.865161e+003,1.395184e+001
2.866125e+003,1.534206e+001
2.867090e+003,1.338891e+001
2.868054e+003,1.145433e+001
2.869018e+003,1.051854e+001
2.869982e+003,1.021577e+001
2.870947e+003,1.155638e+001
2.871911e+003,1.248258e+001
2.872875e+003,1.096404e+001
2.873839e+003,1.150892e+001
2.874804e+003,1.450554e+001
2.875768e+003,1.381223e+001
2.876732e+003,9.991570e+000
2.877696e+003,9.838943e+000
2.878661e+003,1.341632e+001
2.879625e+003,1.526996e+001
2.880589e+003,1.441066e+001
2.881553e+003,1.513017e+001
2.882518e+003,1.907046e+001
2.883482e+003,2.021798e+001
2.884446e+003,1.743492e+001
2.885410e+003,1.749255e+001
2.886375e+003,2.021622e+001
2.887339e+003,2.113963e+001
2.888303e+003,2.009583e+001
2.889267e+003,1.775669e+001
2.890231e+003,1.528287e+001
2.891196e+003,1.618467e+001
2.892160e+003,2.047509e+001
2.893124e+003,2.229330e+001
2.894088e+003,2.046634e+001
2.895052e+003,1.987449e+001
2.896017e+003,2.054431e+001
2.896981e+003,2.236430e+001
2.897945e+003,2.505692e+001
2.898909e+003,2.734398e+001
2.899874e+003,2.874501e+001
2.900838e+003,2.749780e+001
2.901802e+003,2.484442e+001
2.902766e+003,2.563423e+001
2.903731e+003,2.998796e+001
2.904695e+003,3.178378e+001
2.905659e+003,3.079099e+001
2.906623e+003,3.008708e+001
2.907588e+003,2.974630e+001
2.908552e+003,3.143024e+001
2.909516e+003,3.449574e+001
2.910480e+003,3.671353e+001
2.911445e+003,3.818262e+001
2.912409e+003,3.978009e+001
2.913373e+003,4.155256e+001
2.914337e+003,4.332645e+001
2.915302e+003,4.495722e+001
2.916266e+003,4.596552e+001
2.917230e+003,4.638673e+001
2.918194e+003,4.638798e+001
2.919158e+003,4.629482e+001
2.920123e+003,4.815901e+001
2.921087e+003,5.071445e+001
2.922051e+003,5.065118e+001
2.923015e+003,4.943761e+001
2.923979e+003,5.032506e+001
2.924944e+003,5.262262e+001
2.925908e+003,5.358945e+001
2.926872e+003,5.407222e+001
2.927836e+003,5.728762e+001
2.928801e+003,6.204398e+001
2.929765e+003,6.268117e+001
2.930729e+003,6.114447e+001
2.931693e+003,6.114814e+001
2.932658e+003,6.219327e+001
2.933622e+003,6.376557e+001
2.934586e+003,6.528937e+001
2.935550e+003,6.604993e+001
2.936515e+003,6.628079e+001
2.937479e+003,6.611451e+001
2.938443e+003,6.605317e+001
2.939407e+003,6.730659e+001
2.940372e+003,6.938225e+001
2.941336e+003,7.147677e+001
2.942300e+003,7.349227e+001
2.943264e+003,7.596378e+001
2.944229e+003,7.756342e+001
2.945193e+003,7.520450e+001
2.946157e+003,7.369064e+001
2.947121e+003,7.767077e+001
2.948085e+003,8.251278e+001
2.949050e+003,8.278468e+001
2.950014e+003,8.093800e+001
2.950978e+003,8.025192e+001
2.951942e+003,8.012818e+001
2.952906e+003,8.012952e+001
2.953871e+003,8.010322e+001
2.954835e+003,7.938937e+001
2.955799e+003,7.950568e+001
2.956763e+003,8.153430e+001
2.957728e+003,8.355494e+001
2.958692e+003,8.437241e+001
2.959656e+003,8.450929e+001
2.960620e+003,8.431850e+001
2.961585e+003,8.451522e+001
2.962549e+003,8.573730e+001
2.963513e+003,8.763816e+001
2.964477e+003,9.166569e+001
2.965442e+003,9.341766e+001
2.966406e+003,9.083657e+001
2.967370e+003,8.887995e+001
2.968334e+003,8.920661e+001
2.969299e+003,9.069266e+001
2.970263e+003,9.268854e+001
2.971227e+003,9.417266e+001
2.972191e+003,9.440563e+001
2.973156e+003,9.484682e+001
2.974120e+003,9.702502e+001
2.975084e+003,9.780266e+001
2.976048e+003,9.638042e+001
2.977012e+003,9.538026e+001
2.977977e+003,9.520831e+001
2.978941e+003,9.627568e+001
2.979905e+003,9.844299e+001
2.980869e+003,1.004661e+002
2.981833e+003,1.018911e+002
2.982798e+003,1.028558e+002
2.983762e+003,1.033325e+002
2.984726e+003,1.037812e+002
2.985690e+003,1.042528e+002
2.986655e+003,1.045995e+002
2.987619e+003,1.048387e+002
2.988583e+003,1.051410e+002
2.989547e+003,1.056474e+002
2.990512e+003,1.070088e+002
2.991476e+003,1.088821e+002
2.992440e+003,1.099008e+002
2.993404e+003,1.099551e+002
2.994369e+003,1.102277e+002
2.995333e+003,1.107422e+002
2.996297e+003,1.112111e+002
2.997261e+003,1.115272e+002
2.998226e+003,1.107937e+002
2.999190e+003,1.095203e+002
3.000154e+003,1.085321e+002
3.001118e+003,1.081826e+002
3.002083e+003,1.091545e+002
3.003047e+003,1.109229e+002
3.004011e+003,1.125605e+002
3.004975e+003,1.136658e+002
3.005939e+003,1.129346e+002
3.006904e+003,1.115373e+002
3.007868e+003,1.124027e+002
3.008832e+003,1.149405e+002
3.009796e+003,1.201760e+002
3.010760e+003,1.245736e+002
3.011725e+003,1.237374e+002
3.012689e+003,1.211012e+002
3.013653e+003,1.190639e+002
3.014617e+003,1.182925e+002
3.015582e+003,1.195913e+002
3.016546e+003,1.215635e+002
3.017510e+003,1.224944e+002
3.018474e+003,1.230729e+002
3.019439e+003,1.240159e+002
3.020403e+003,1.247114e+002
3.021367e+003,1.246585e+002
3.022331e+003,1.244986e+002
3.023296e+003,1.243744e+002
3.024260e+003,1.241738e+002
3.025224e+003,1.239231e+002
3.026188e+003,1.259306e+002
3.027153e+003,1.318504e+002
3.028117e+003,1.365716e+002
3.029081e+003,1.368826e+002
3.030045e+003,1.357623e+002
3.031010e+003,1.327216e+002
3.031974e+003,1.318251e+002
3.032938e+003,1.335528e+002
3.033902e+003,1.355466e+002
3.034866e+003,1.372046e+002
3.035831e+003,1.383504e+002
3.036795e+003,1.391843e+002
3.037759e+003,1.412944e+002
3.038723e+003,1.452899e+002
3.039688e+003,1.472296e+002
3.040652e+003,1.467341e+002
3.041616e+003,1.459963e+002
3.042580e+003,1.452923e+002
3.043544e+003,1.464301e+002
3.044509e+003,1.488415e+002
3.045473e+003,1.511848e+002
3.046437e+003,1.529970e+002
3.047401e+003,1.535572e+002
3.048366e+003,1.533300e+002
3.049330e+003,1.535436e+002
3.050294e+003,1.543044e+002
3.051258e+003,1.564815e+002
3.052223e+003,1.591688e+002
3.053187e+003,1.604572e+002
3.054151e+003,1.607385e+002
3.055115e+003,1.601007e+002
3.056080e+003,1.591904e+002
3.057044e+003,1.578853e+002
3.058008e+003,1.582141e+002
3.058972e+003,1.623680e+002
3.059937e+003,1.663313e+002
3.060901e+003,1.646123e+002
3.061865e+003,1.624258e+002
3.062829e+003,1.667976e+002
3.063793e+003,1.708182e+002
3.064758e+003,1.703681e+002
3.065722e+003,1.685269e+002
3.066686e+003,1.657295e+002
3.067650e+003,1.643060e+002
3.068615e+003,1.651369e+002
3.069579e+003,1.677505e+002
3.070543e+003,1.717829e+002
3.071507e+003,1.736498e+002
3.072471e+003,1.702267e+002
3.073436e+003,1.689797e+002
3.074400e+003,1.717895e+002
3.075364e+003,1.731247e+002
3.076328e+003,1.727338e+002
3.077293e+003,1.733101e+002
3.078257e+003,1.748692e+002
3.079221e+003,1.754705e+002
3.080185e+003,1.751390e+002
3.081150e+003,1.755240e+002
3.082114e+003,1.769580e+002
3.083078e+003,1.794315e+002
3.084042e+003,1.828269e+002
3.085007e+003,1.864548e+002
3.085971e+003,1.891035e+002
3.086935e+003,1.852756e+002
3.087899e+003,1.795540e+002
3.088864e+003,1.800044e+002
3.089828e+003,1.830890e+002
3.090792e+003,1.830455e+002
3.091756e+003,1.816381e+002
3.092720e+003,1.811185e+002
3.093685e+003,1.815157e+002
3.094649e+003,1.835202e+002
3.095613e+003,1.855629e+002
3.096577e+003,1.855920e+002
3.097542e+003,1.853641e+002
3.098506e+003,1.859144e+002
3.099470e+003,1.866896e+002
3.100434e+003,1.875223e+002
3.101398e+003,1.885516e+002
3.102363e+003,1.898197e+002
3.103327e+003,1.906740e+002
3.104291e+003,1.906652e+002
3.105255e+003,1.905219e+002
3.106220e+003,1.900655e+002
3.107184e+003,1.908684e+002
3.108148e+003,1.934174e+002
3.109112e+003,1.932958e+002
3.110077e+003,1.907039e+002
3.111041e+003,1.908327e+002
3.112005e+003,1.937761e+002
3.112969e+003,1.956515e+002
3.113934e+003,1.959770e+002
3.114898e+003,1.979557e+002
3.115862e+003,2.013628e+002
3.116826e+003,2.013015e+002
3.117791e+003,1.989603e+002
3.118755e+003,2.004880e+002
3.119719e+003,2.036295e+002
3.120683e+003,2.045904e+002
3.121647e+003,2.038449e+002
3.122612e+003,2.006803e+002
3.123576e+003,1.989671e+002
3.124540e+003,2.030444e+002
3.125504e+003,2.087662e+002
3.126469e+003,2.106292e+002
3.127433e+003,2.095634e+002
3.128397e+003,2.032144e+002
3.129361e+003,1.994339e+002
3.130325e+003,2.063264e+002
3.131290e+003,2.114023e+002
3.132254e+003,2.107472e+002
3.133218e+003,2.108745e+002
3.134182e+003,2.141387e+002
3.135147e+003,2.162641e+002
3.136111e+003,2.151804e+002
3.137075e+003,2.147369e+002
3.138039e+003,2.165836e+002
3.139004e+003,2.192281e+002
3.139968e+003,2.228147e+002
3.140932e+003,2.242896e+002
3.141896e+003,2.239755e+002
3.142861e+003,2.243684e+002
3.143825e+003,2.254902e+002
3.144789e+003,2.261816e+002
3.145753e+003,2.265862e+002
3.146718e+003,2.278103e+002
3.147682e+003,2.295219e+002
3.148646e+003,2.307502e+002
3.149610e+003,2.312455e+002
3.150574e+003,2.293412e+002
3.151539e+003,2.273589e+002
3.152503e+003,2.283409e+002
3.153467e+003,2.306108e+002
3.154431e+003,2.335078e+002
3.155396e+003,2.347194e+002
3.156360e+003,2.325296e+002
3.157324e+003,2.305841e+002
3.158288e+003,2.322213e+002
3.159252e+003,2.338698e+002
3.160217e+003,2.314779e+002
3.161181e+003,2.312831e+002
3.162145e+003,2.355713e+002
3.163109e+003,2.384166e+002
3.164074e+003,2.390943e+002
3.165038e+003,2.402036e+002
3.166002e+003,2.422109e+002
3.166966e+003,2.444977e+002
3.167931e+003,2.465933e+002
3.168895e+003,2.457283e+002
3.169859e+003,2.419870e+002
3.170823e+003,2.407386e+002
3.171788e+003,2.416660e+002
3.172752e+003,2.433459e+002
3.173716e+003,2.454971e+002
3.174680e+003,2.485994e+002
3.175645e+003,2.510588e+002
3.176609e+003,2.499128e+002
3.177573e+003,2.478691e+002
3.178537e+003,2.474388e+002
3.179501e+003,2.482873e+002
3.180466e+003,2.503287e+002
3.181430e+003,2.524731e+002
3.182394e+003,2.539187e+002
3.183358e+003,2.546205e+002
3.184323e+003,2.541948e+002
3.185287e+003,2.539699e+002
3.186251e+003,2.542459e+002
3.187215e+003,2.541682e+002
3.188179e+003,2.536776e+002
3.189144e+003,2.548310e+002
3.190108e+003,2.584108e+002
3.191072e+003,2.602010e+002
3.192036e+003,2.592896e+002
3.193001e+003,2.591383e+002
3.193965e+003,2.595914e+002
3.194929e+003,2.593004e+002
3.195893e+003,2.587256e+002
3.196858e+003,2.592193e+002
3.197822e+003,2.602575e+002
3.198786e+003,2.607921e+002
3.199750e+003,2.607630e+002
3.200715e+003,2.600046e+002
3.201679e+003,2.591065e+002
3.202643e+003,2.586823e+002
3.203607e+003,2.593130e+002
3.204572e+003,2.626619e+002
3.205536e+003,2.656594e+002
3.206500e+003,2.672172e+002
3.207464e+003,2.668642e+002
3.208428e+003,2.644821e+002
3.209393e+003,2.627366e+002
3.210357e+003,2.627963e+002
3.211321e+003,2.640746e+002
3.212285e+003,2.666379e+002
3.213250e+003,2.682976e+002
3.214214e+003,2.687358e+002
3.215178e+003,2.703539e+002
3.216142e+003,2.722914e+002
3.217106e+003,2.683442e+002
3.218071e+003,2.620847e+002
3.219035e+003,2.625821e+002
3.219999e+003,2.677791e+002
3.220963e+003,2.715269e+002
3.221928e+003,2.738445e+002
3.222892e+003,2.747810e+002
3.223856e+003,2.748516e+002
3.224820e+003,2.749344e+002
3.225785e+003,2.745721e+002
3.226749e+003,2.725910e+002
3.227713e+003,2.712956e+002
3.228677e+003,2.712791e+002
3.229642e+003,2.738270e+002
3.230606e+003,2.790643e+002
3.231570e+003,2.822562e+002
3.232534e+003,2.811558e+002
3.233499e+003,2.803657e+002
3.234463e+003,2.817606e+002
3.235427e+003,2.816032e+002
3.236391e+003,2.800226e+002
3.237355e+003,2.805424e+002
3.238320e+003,2.826921e+002
3.239284e+003,2.848290e+002
3.240248e+003,2.867345e+002
3.241212e+003,2.888297e+002
3.242177e+003,2.903571e+002
3.243141e+003,2.898620e+002
3.244105e+003,2.890572e+002
3.245069e+003,2.919162e+002
3.246033e+003,2.951196e+002
3.246998e+003,2.951755e+002
3.247962e+003,2.944089e+002
3.248926e+003,2.936342e+002
3.249890e+003,2.933443e+002
3.250855e+003,2.936499e+002
3.251819e+003,2.935367e+002
3.252783e+003,2.927172e+002
3.253747e+003,2.926760e+002
3.254712e+003,2.941260e+002
3.255676e+003,2.947268e+002
3.256640e+003,2.942522e+002
3.257604e+003,2.971779e+002
3.258569e+003,3.020896e+002
3.259533e+003,3.046066e+002
3.260497e+003,3.052131e+002
3.261461e+003,3.052030e+002
3.262426e+003,3.046601e+002
3.263390e+003,3.031589e+002
3.264354e+003,3.026190e+002
3.265318e+003,3.065871e+002
3.266282e+003,3.105615e+002
3.267247e+003,3.077516e+002
3.268211e+003,3.067797e+002
3.269175e+003,3.128942e+002
3.270139e+003,3.162247e+002
3.271104e+003,3.149160e+002
3.272068e+003,3.152592e+002
3.273032e+003,3.185564e+002
3.273996e+003,3.203358e+002
3.274960e+003,3.193434e+002
3.275925e+003,3.190701e+002
3.276889e+003,3.196410e+002
3.277853e+003,3.184875e+002
3.278817e+003,3.169637e+002
3.279782e+003,3.205055e+002
3.280746e+003,3.246652e+002
3.281710e+003,3.214105e+002
3.282674e+003,3.171521e+002
3.283639e+003,3.174793e+002
3.284603e+003,3.203845e+002
3.285567e+003,3.243699e+002
3.286531e+003,3.273356e+002
3.287496e+003,3.263312e+002
3.288460e+003,3.259276e+002
3.289424e+003,3.274314e+002
3.290388e+003,3.293079e+002
3.291353e+003,3.311515e+002
3.292317e+003,3.301497e+002
3.293281e+003,3.271066e+002
3.294245e+003,3.272265e+002
3.295209e+003,3.302961e+002
3.296174e+003,3.299133e+002
3.297138e+003,3.273474e+002
3.298102e+003,3.283891e+002
3.299066e+003,3.313885e+002
3.300031e+003,3.339275e+002
3.300995e+003,3.358334e+002
3.301959e+003,3.366337e+002
3.302923e+003,3.375507e+002
3.303887e+003,3.392474e+002
3.304852e+003,3.383911e+002
3.305816e+003,3.331003e+002
3.306780e+003,3.309565e+002
3.307744e+003,3.376865e+002
3.308709e+003,3.423183e+002
3.309673e+003,3.438999e+002
3.310637e+003,3.431779e+002
3.311601e+003,3.410776e+002
3.312566e+003,3.410080e+002
3.313530e+003,3.424244e+002
3.314494e+003,3.437073e+002
3.315458e+003,3.442282e+002
3.316423e+003,3.431162e+002
3.317387e+003,3.418749e+002
3.318351e+003,3.437409e+002
3.319315e+003,3.459006e+002
3.320280e+003,3.448000e+002
3.321244e+003,3.441420e+002
3.322208e+003,3.452406e+002
3.323172e+003,3.467994e+002
3.324136e+003,3.485341e+002
3.325101e+003,3.518779e+002
3.326065e+003,3.566310e+002
3.327029e+003,3.576120e+002
3.327993e+003,3.536949e+002
3.328958e+003,3.539584e+002
3.329922e+003,3.575693e+002
3.330886e+003,3.580776e+002
3.331850e+003,3.574316e+002
3.332814e+003,3.598113e+002
3.333779e+003,3.621289e+002
3.334743e+003,3.606707e+002
3.335707e+003,3.595547e+002
3.336671e+003,3.618428e+002
3.337636e+003,3.636801e+002
3.338600e+003,3.614793e+002
3.339564e+003,3.596543e+002
3.340528e+003,3.597169e+002
3.341493e+003,3.622751e+002
3.342457e+003,3.671255e+002
3.343421e+003,3.688240e+002
3.344385e+003,3.683168e+002
3.345350e+003,3.711801e+002
3.346314e+003,3.763131e+002
3.347278e+003,3.787808e+002
3.348242e+003,3.788461e+002
3.349207e+003,3.763004e+002
3.350171e+003,3.738071e+002
3.351135e+003,3.765000e+002
3.352099e+003,3.798127e+002
3.353063e+003,3.807965e+002
3.354028e+003,3.814550e+002
3.354992e+003,3.822815e+002
3.355956e+003,3.809533e+002
3.356920e+003,3.773723e+002
3.357885e+003,3.776918e+002
3.358849e+003,3.841030e+002
3.359813e+003,3.855038e+002
3.360777e+003,3.820321e+002
3.361741e+003,3.852194e+002
3.362706e+003,3.909427e+002
3.363670e+003,3.900067e+002
3.364634e+003,3.865829e+002
3.365598e+003,3.850999e+002
3.366563e+003,3.862761e+002
3.367527e+003,3.907799e+002
3.368491e+003,3.945020e+002
3.369455e+003,3.935352e+002
3.370420e+003,3.931021e+002
3.371384e+003,3.976975e+002
3.372348e+003,3.978914e+002
3.373312e+003,3.936827e+002
3.374277e+003,3.955219e+002
3.375241e+003,4.015181e+002
3.376205e+003,4.019462e+002
3.377169e+003,3.984391e+002
3.378134e+003,3.984254e+002
3.379098e+003,4.005062e+002
3.380062e+003,4.021086e+002
3.381026e+003,4.031360e+002
3.381990e+003,4.034213e+002
3.382955e+003,4.030075e+002
3.383919e+003,4.011319e+002
3.384883e+003,4.012897e+002
3.385847e+003,4.040336e+002
3.386812e+003,4.046631e+002
3.387776e+003,4.023186e+002
3.388740e+003,4.009305e+002
3.389704e+003,4.014250e+002
3.390668e+003,4.020216e+002
3.391633e+003,4.026811e+002
3.392597e+003,4.032254e+002
3.393561e+003,4.036082e+002
3.394525e+003,4.038959e+002
3.395490e+003,4.036402e+002
3.396454e+003,4.020872e+002
3.397418e+003,4.023441e+002
3.398382e+003,4.061038e+002
3.399347e+003,4.091743e+002
3.400311e+003,4.087325e+002
3.401275e+003,4.094219e+002
3.402239e+003,4.123842e+002
3.403204e+003,4.154027e+002
3.404168e+003,4.179421e+002
3.405132e+003,4.171255e+002
3.406096e+003,4.147196e+002
3.407061e+003,4.146777e+002
3.408025e+003,4.153250e+002
3.408989e+003,4.143960e+002
3.409953e+003,4.128034e+002
3.410917e+003,4.107550e+002
3.411882e+003,4.111862e+002
3.412846e+003,4.195775e+002
3.413810e+003,4.237238e+002
3.414774e+003,4.217760e+002
3.415739e+003,4.216242e+002
3.416703e+003,4.240266e+002
3.417667e+003,4.269568e+002
3.418631e+003,4.290707e+002
3.419595e+003,4.279729e+002
3.420560e+003,4.244131e+002
3.421524e+003,4.183364e+002
3.422488e+003,4.137206e+002
3.423452e+003,4.198203e+002
3.424417e+003,4.259572e+002
3.425381e+003,4.254284e+002
3.426345e+003,4.241970e+002
3.427309e+003,4.238878e+002
3.428274e+003,4.232047e+002
3.429238e+003,4.221042e+002
3.430202e+003,4.248089e+002
3.431166e+003,4.318263e+002
3.432131e+003,4.321855e+002
3.433095e+003,4.278461e+002
3.434059e+003,4.262517e+002
3.435023e+003,4.271713e+002
3.435988e+003,4.328964e+002
3.436952e+003,4.361629e+002
3.437916e+003,4.322076e+002
3.438880e+003,4.295667e+002
3.439844e+003,4.332591e+002
3.440809e+003,4.370024e+002
3.441773e+003,4.372721e+002
3.442737e+003,4.379885e+002
3.443701e+003,4.394183e+002
3.444666e+003,4.400941e+002
3.445630e+003,4.406126e+002
3.446594e+003,4.437772e+002
3.447558e+003,4.466890e+002
3.448522e+003,4.445961e+002
3.449487e+003,4.414612e+002
3.450451e+003,4.409868e+002
3.451415e+003,4.424026e+002
3.452379e+003,4.464975e+002
3.453344e+003,4.487484e+002
3.454308e+003,4.472408e+002
3.455272e+003,4.483206e+002
3.456236e+003,4.516590e+002
3.457201e+003,4.516305e+002
3.458165e+003,4.492654e+002
3.459129e+003,4.499133e+002
3.460093e+003,4.522595e+002
3.461058e+003,4.533398e+002
3.462022e+003,4.541975e+002
3.462986e+003,4.565212e+002
3.463950e+003,4.593993e+002
3.464915e+003,4.631040e+002
3.465879e+003,4.653708e+002
3.466843e+003,4.658548e+002
3.467807e+003,4.648344e+002
3.468771e+003,4.632245e+002
3.469736e+003,4.647812e+002
3.470700e+003,4.691055e+002
3.471664e+003,4.704214e+002
3.472628e+003,4.699367e+002
3.473593e+003,4.711405e+002
3.474557e+003,4.730711e+002
3.475521e+003,4.755121e+002
3.476485e+003,4.764134e+002
3.477449e+003,4.748053e+002
3.478414e+003,4.758635e+002
3.479378e+003,4.808600e+002
3.480342e+003,4.842591e+002
3.481306e+003,4.841693e+002
3.482271e+003,4.838066e+002
3.483235e+003,4.833571e+002
3.484199e+003,4.823951e+002
3.485163e+003,4.825398e+002
3.486128e+003,4.884996e+002
3.487092e+003,4.940265e+002
3.488056e+003,4.947377e+002
3.489020e+003,4.936006e+002
3.489985e+003,4.922633e+002
3.490949e+003,4.928119e+002
3.491913e+003,4.968083e+002
3.492877e+003,4.988022e+002
3.493842e+003,4.983327e+002
3.494806e+003,5.005349e+002
3.495770e+003,5.035686e+002
3.496734e+003,5.022668e+002
3.497698e+003,4.992157e+002
3.498663e+003,4.972384e+002
3.499627e+003,4.973442e+002
3.500591e+003,0.000000e+000
