9.974011e+001,4.550433e+002
1.007043e+002,4.576522e+002
1.016686e+002,4.608110e+002
1.026328e+002,4.643810e+002
1.035970e+002,4.659984e+002
1.045613e+002,4.664435e+002
1.055255e+002,4.654261e+002
1.064897e+002,4.621671e+002
1.074540e+002,4.530638e+002
1.084182e+002,4.450759e+002
1.093824e+002,4.382173e+002
1.103467e+002,4.325936e+002
1.113109e+002,4.285407e+002
1.122751e+002,4.295718e+002
1.132394e+002,4.320844e+002
1.142036e+002,4.343676e+002
1.151678e+002,4.352665e+002
1.161321e+002,4.346105e+002
1.170963e+002,4.327644e+002
1.180605e+002,4.299437e+002
1.190248e+002,4.266744e+002
1.199890e+002,4.236047e+002
1.209532e+002,4.215159e+002
1.219175e+002,4.195853e+002
1.228817e+002,4.177947e+002
1.238459e+002,4.160354e+002
1.248102e+002,4.141206e+002
1.257744e+002,4.111468e+002
1.267386e+002,4.087775e+002
1.277029e+002,4.071351e+002
1.286671e+002,4.059796e+002
1.296313e+002,4.046558e+002
1.305956e+002,4.032830e+002
1.315598e+002,4.016028e+002
1.325240e+002,3.992360e+002
1.334883e+002,3.962309e+002
1.344525e+002,3.935357e+002
1.354167e+002,3.931730e+002
1.363810e+002,3.939996e+002
1.373452e+002,3.949025e+002
1.383094e+002,3.949513e+002
1.392737e+002,3.940640e+002
1.402379e+002,3.919904e+002
1.412021e+002,3.878228e+002
1.421664e+002,3.830127e+002
1.431306e+002,3.798284e+002
1.440948e+002,3.801471e+002
1.450591e+002,3.806434e+002
1.460233e+002,3.810753e+002
1.469875e+002,3.811895e+002
1.479518e+002,3.806852e+002
1.489160e+002,3.780190e+002
1.498802e+002,3.753317e+002
1.508445e+002,3.741321e+002
1.518087e+002,3.747677e+002
1.527729e+002,3.763285e+002
1.537372e+002,3.758983e+002
1.547014e+002,3.737667e+002
1.556656e+002,3.701974e+002
1.566299e+002,3.654528e+002
1.575941e+002,3.596893e+002
1.585583e+002,3.568850e+002
1.595226e+002,3.579963e+002
1.604868e+002,3.601451e+002
1.614510e+002,3.603583e+002
1.624153e+002,3.565251e+002
1.633795e+002,3.529179e+002
1.643438e+002,3.502546e+002
1.653080e+002,3.484845e+002
1.662722e+002,3.474030e+002
1.672365e+002,3.472032e+002
1.682007e+002,3.470001e+002
1.691649e+002,3.468163e+002
1.701292e+002,3.465768e+002
1.710934e+002,3.460803e+002
1.720576e+002,3.439955e+002
1.730219e+002,3.413000e+002
1.739861e+002,3.396846e+002
1.749503e+002,3.395779e+002
1.759146e+002,3.405847e+002
1.768788e+002,3.400743e+002
1.778430e+002,3.391014e+002
1.788073e+002,3.379521e+002
1.797715e+002,3.367425e+002
1.807357e+002,3.354418e+002
1.817000e+002,3.342430e+002
1.826642e+002,3.318220e+002
1.836284e+002,3.292324e+002
1.845927e+002,3.274124e+002
1.855569e+002,3.272598e+002
1.865211e+002,3.267623e+002
1.874854e+002,3.252876e+002
1.884496e+002,3.234874e+002
1.894138e+002,3.220584e+002
1.903781e+002,3.218021e+002
1.913423e+002,3.224174e+002
1.923065e+002,3.225840e+002
1.932708e+002,3.219221e+002
1.942350e+002,3.204373e+002
1.951992e+002,3.188528e+002
1.961635e+002,3.173703e+002
1.971277e+002,3.165729e+002
1.980919e+002,3.175116e+002
1.990562e+002,3.201356e+002
2.000204e+002,3.204443e+002
2.009846e+002,3.144745e+002
2.019489e+002,3.091308e+002
2.029131e+002,3.073088e+002
2.038773e+002,3.099748e+002
2.048416e+002,3.133024e+002
2.058058e+002,3.139650e+002
2.067700e+002,3.134545e+002
2.077343e+002,3.126647e+002
2.086985e+002,3.122516e+002
2.096627e+002,3.119957e+002
2.106270e+002,3.110935e+002
2.115912e+002,3.097023e+002
2.125554e+002,3.082797e+002
2.135197e+002,3.073270e+002
2.144839e+002,3.070289e+002
2.154481e+002,3.061172e+002
2.164124e+002,3.045544e+002
2.173766e+002,3.028073e+002
2.183408e+002,3.014933e+002
2.193051e+002,3.006768e+002
2.202693e+002,3.002242e+002
2.212335e+002,2.999796e+002
2.221978e+002,2.998854e+002
2.231620e+002,2.999871e+002
2.241262e+002,3.011817e+002
2.250904e+002,3.026250e+002
2.260547e+002,3.031884e+002
2.270189e+002,3.026500e+002
2.279831e+002,3.013257e+002
2.289474e+002,3.007170e+002
2.299116e+002,3.009308e+002
2.308758e+002,3.011812e+002
2.318401e+002,3.012761e+002
2.328043e+002,3.013021e+002
2.337685e+002,3.015278e+002
2.347328e+002,3.012209e+002
2.356970e+002,3.005239e+002
2.366612e+002,2.996277e+002
2.376255e+002,2.987624e+002
2.385897e+002,2.979891e+002
2.395539e+002,2.971682e+002
2.405182e+002,2.965657e+002
2.414824e+002,2.965462e+002
2.424466e+002,2.974162e+002
2.434109e+002,2.983085e+002
2.443751e+002,2.973744e+002
2.453393e+002,2.955209e+002
2.463036e+002,2.941882e+002
2.472678e+002,2.950095e+002
2.482320e+002,2.983486e+002
2.491963e+002,3.000889e+002
2.501605e+002,2.997978e+002
2.511247e+002,2.984183e+002
2.520890e+002,2.974674e+002
2.530532e+002,2.969235e+002
2.540174e+002,2.969328e+002
2.549817e+002,2.981760e+002
2.559459e+002,3.002014e+002
2.569102e+002,3.020445e+002
2.578744e+002,3.027976e+002
2.588386e+002,3.022534e+002
2.598029e+002,3.000825e+002
2.607671e+002,2.971713e+002
2.617313e+002,2.950813e+002
2.626956e+002,2.967670e+002
2.636598e+002,3.002469e+002
2.646240e+002,3.024968e+002
2.655883e+002,3.027544e+002
2.665525e+002,3.013746e+002
2.675167e+002,3.008563e+002
2.684810e+002,3.015557e+002
2.694452e+002,3.031813e+002
2.704094e+002,3.065574e+002
2.713737e+002,3.118236e+002
2.723379e+002,3.145691e+002
2.733021e+002,3.120806e+002
2.742664e+002,3.090532e+002
2.752306e+002,3.069712e+002
2.761948e+002,3.063666e+002
2.771591e+002,3.064918e+002
2.781233e+002,3.072792e+002
2.790875e+002,3.084814e+002
2.800518e+002,3.099094e+002
2.810160e+002,3.113671e+002
2.819802e+002,3.126564e+002
2.829445e+002,3.135781e+002
2.839087e+002,3.142084e+002
2.848729e+002,3.143908e+002
2.858372e+002,3.139256e+002
2.868014e+002,3.125082e+002
2.877656e+002,3.126896e+002
2.887299e+002,3.154686e+002
2.896941e+002,3.180667e+002
2.906583e+002,3.182875e+002
2.916226e+002,3.151904e+002
2.925868e+002,3.124306e+002
2.935510e+002,3.101335e+002
2.945153e+002,3.087164e+002
2.954795e+002,3.086068e+002
2.964437e+002,3.102411e+002
2.974080e+002,3.123796e+002
2.983722e+002,3.144969e+002
2.993364e+002,3.164655e+002
3.003007e+002,3.178145e+002
3.012649e+002,3.178542e+002
3.022291e+002,3.163124e+002
3.031934e+002,3.148702e+002
3.041576e+002,3.134421e+002
3.051218e+002,3.125896e+002
3.060861e+002,3.132842e+002
3.070503e+002,3.173046e+002
3.080145e+002,3.192770e+002
3.089788e+002,3.182362e+002
3.099430e+002,3.159584e+002
3.109072e+002,3.151722e+002
3.118715e+002,3.180090e+002
3.128357e+002,3.216894e+002
3.137999e+002,3.252999e+002
3.147642e+002,3.281100e+002
3.157284e+002,3.294209e+002
3.166926e+002,3.282600e+002
3.176569e+002,3.262775e+002
3.186211e+002,3.252473e+002
3.195853e+002,3.252538e+002
3.205496e+002,3.260465e+002
3.215138e+002,3.272292e+002
3.224780e+002,3.289336e+002
3.234423e+002,3.299031e+002
3.244065e+002,3.297856e+002
3.253707e+002,3.288815e+002
3.263350e+002,3.282205e+002
3.272992e+002,3.285037e+002
3.282634e+002,3.289911e+002
3.292277e+002,3.293317e+002
3.301919e+002,3.296030e+002
3.311561e+002,3.302706e+002
3.321204e+002,3.326420e+002
3.330846e+002,3.344609e+002
3.340488e+002,3.337709e+002
3.350131e+002,3.308448e+002
3.359773e+002,3.274303e+002
3.369415e+002,3.279883e+002
3.379058e+002,3.317297e+002
3.388700e+002,3.344234e+002
3.398342e+002,3.348855e+002
3.407985e+002,3.336415e+002
3.417627e+002,3.341822e+002
3.427269e+002,3.383865e+002
3.436912e+002,3.412386e+002
3.446554e+002,3.413132e+002
3.456196e+002,3.391606e+002
3.465839e+002,3.379630e+002
3.475481e+002,3.399949e+002
3.485123e+002,3.425785e+002
3.494765e+002,3.453212e+002
3.504408e+002,3.475789e+002
3.514050e+002,3.484075e+002
3.523692e+002,3.449359e+002
3.533335e+002,3.404526e+002
3.542977e+002,3.383186e+002
3.552619e+002,3.395219e+002
3.562262e+002,3.433109e+002
3.571904e+002,3.460210e+002
3.581546e+002,3.472237e+002
3.591189e+002,3.479167e+002
3.600831e+002,3.479878e+002
3.610473e+002,3.473965e+002
3.620116e+002,3.470662e+002
3.629758e+002,3.481374e+002
3.639400e+002,3.489450e+002
3.649043e+002,3.490067e+002
3.658685e+002,3.482747e+002
3.668327e+002,3.471572e+002
3.677970e+002,3.451679e+002
3.687612e+002,3.437167e+002
3.697254e+002,3.434158e+002
3.706897e+002,3.444425e+002
3.716539e+002,3.466401e+002
3.726181e+002,3.504357e+002
3.735824e+002,3.548790e+002
3.745466e+002,3.576348e+002
3.755108e+002,3.579855e+002
3.764751e+002,3.564022e+002
3.774393e+002,3.557012e+002
3.784035e+002,3.560070e+002
3.793678e+002,3.565807e+002
3.803320e+002,3.580151e+002
3.812962e+002,3.601312e+002
3.822605e+002,3.611726e+002
3.832247e+002,3.582118e+002
3.841889e+002,3.556683e+002
3.851532e+002,3.552029e+002
3.861174e+002,3.567243e+002
3.870816e+002,3.586939e+002
3.880459e+002,3.591161e+002
3.890101e+002,3.587211e+002
3.899743e+002,3.582977e+002
3.909386e+002,3.581260e+002
3.919028e+002,3.582226e+002
3.928670e+002,3.583190e+002
3.938313e+002,3.579066e+002
3.947955e+002,3.575181e+002
3.957597e+002,3.577195e+002
3.967240e+002,3.583502e+002
3.976882e+002,3.581656e+002
3.986524e+002,3.554087e+002
3.996167e+002,3.538720e+002
4.005809e+002,3.543163e+002
4.015451e+002,3.561465e+002
4.025094e+002,3.579471e+002
4.034736e+002,3.590541e+002
4.044378e+002,3.602671e+002
4.054021e+002,3.621357e+002
4.063663e+002,3.642394e+002
4.073305e+002,3.655305e+002
4.082948e+002,3.639642e+002
4.092590e+002,3.599805e+002
4.102232e+002,3.588708e+002
4.111875e+002,3.616379e+002
4.121517e+002,3.664208e+002
4.131159e+002,3.688189e+002
4.140802e+002,3.665117e+002
4.150444e+002,3.661020e+002
4.160086e+002,3.685811e+002
4.169729e+002,3.725121e+002
4.179371e+002,3.755260e+002
4.189013e+002,3.756036e+002
4.198656e+002,3.745021e+002
4.208298e+002,3.735836e+002
4.217940e+002,3.728047e+002
4.227583e+002,3.719026e+002
4.237225e+002,3.705834e+002
4.246867e+002,3.698178e+002
4.256510e+002,3.701091e+002
4.266152e+002,3.711245e+002
4.275794e+002,3.727252e+002
4.285437e+002,3.749748e+002
4.295079e+002,3.784670e+002
4.304721e+002,3.804824e+002
4.314364e+002,3.808389e+002
4.324006e+002,3.806425e+002
4.333648e+002,3.806181e+002
4.343291e+002,3.802537e+002
4.352933e+002,3.802257e+002
4.362575e+002,3.814554e+002
4.372218e+002,3.828432e+002
4.381860e+002,3.834881e+002
4.391502e+002,3.828959e+002
4.401145e+002,3.817090e+002
4.410787e+002,3.802941e+002
4.420429e+002,3.794293e+002
4.430072e+002,3.801302e+002
4.439714e+002,3.828932e+002
4.449356e+002,3.871646e+002
4.458999e+002,3.895662e+002
4.468641e+002,3.905412e+002
4.478283e+002,3.906049e+002
4.487926e+002,3.897766e+002
4.497568e+002,3.880441e+002
4.507210e+002,3.879590e+002
4.516853e+002,3.904109e+002
4.526495e+002,3.921061e+002
4.536137e+002,3.916548e+002
4.545780e+002,3.890984e+002
4.555422e+002,3.863391e+002
4.565064e+002,3.848956e+002
4.574707e+002,3.844801e+002
4.584349e+002,3.850765e+002
4.593991e+002,3.862998e+002
4.603634e+002,3.874601e+002
4.613276e+002,3.873433e+002
4.622918e+002,3.863975e+002
4.632561e+002,3.860555e+002
4.642203e+002,3.868841e+002
4.651845e+002,3.883658e+002
4.661488e+002,3.885839e+002
4.671130e+002,3.852527e+002
4.680772e+002,3.824802e+002
4.690415e+002,3.810131e+002
4.700057e+002,3.805236e+002
4.709699e+002,3.801445e+002
4.719342e+002,3.794310e+002
4.728984e+002,3.785585e+002
4.738626e+002,3.771024e+002
4.748269e+002,3.755624e+002
4.757911e+002,3.748342e+002
4.767553e+002,3.759711e+002
4.777196e+002,3.785412e+002
4.786838e+002,3.803145e+002
4.796480e+002,3.810138e+002
4.806123e+002,3.807687e+002
4.815765e+002,3.799158e+002
4.825407e+002,3.788287e+002
4.835050e+002,3.774814e+002
4.844692e+002,3.755598e+002
4.854334e+002,3.737836e+002
4.863977e+002,3.722731e+002
4.873619e+002,3.705712e+002
4.883261e+002,3.689152e+002
4.892904e+002,3.685837e+002
4.902546e+002,3.690712e+002
4.912188e+002,3.699478e+002
4.921831e+002,3.708071e+002
4.931473e+002,3.713287e+002
4.941115e+002,3.712772e+002
4.950758e+002,3.708740e+002
4.960400e+002,3.700690e+002
4.970042e+002,3.689938e+002
4.979685e+002,3.680461e+002
4.989327e+002,3.683497e+002
4.998969e+002,3.701364e+002
5.008612e+002,3.708624e+002
5.018254e+002,3.695479e+002
5.027896e+002,3.667614e+002
5.037539e+002,3.643722e+002
5.047181e+002,3.627111e+002
5.056823e+002,3.627040e+002
5.066466e+002,3.660285e+002
5.076108e+002,3.706495e+002
5.085750e+002,3.732816e+002
5.095393e+002,3.706269e+002
5.105035e+002,3.660441e+002
5.114677e+002,3.642783e+002
5.124320e+002,3.649609e+002
5.133962e+002,3.670107e+002
5.143605e+002,3.692298e+002
5.153247e+002,3.712886e+002
5.162889e+002,3.729664e+002
5.172532e+002,3.744008e+002
5.182174e+002,3.761896e+002
5.191816e+002,3.785969e+002
5.201459e+002,3.814702e+002
5.211101e+002,3.849406e+002
5.220743e+002,3.892994e+002
5.230386e+002,3.934535e+002
5.240028e+002,3.973455e+002
5.249670e+002,4.012946e+002
5.259313e+002,4.058141e+002
5.268955e+002,4.104871e+002
5.278597e+002,4.148277e+002
5.288240e+002,4.189119e+002
5.297882e+002,4.228239e+002
5.307524e+002,4.265704e+002
5.317167e+002,4.300476e+002
5.326809e+002,4.339067e+002
5.336451e+002,4.396619e+002
5.346094e+002,4.476433e+002
5.355736e+002,4.559007e+002
5.365378e+002,4.612685e+002
5.375021e+002,4.623065e+002
5.384663e+002,4.648376e+002
5.394305e+002,4.694249e+002
5.403948e+002,4.751796e+002
5.413590e+002,4.814083e+002
5.423232e+002,4.877834e+002
5.432875e+002,4.930864e+002
5.442517e+002,4.980548e+002
5.452159e+002,5.026514e+002
5.461802e+002,5.053710e+002
5.471444e+002,5.052957e+002
5.481086e+002,5.031870e+002
5.490729e+002,5.048490e+002
5.500371e+002,5.105048e+002
5.510013e+002,5.158294e+002
5.519656e+002,5.191237e+002
5.529298e+002,5.205874e+002
5.538940e+002,5.220826e+002
5.548583e+002,5.227641e+002
5.558225e+002,5.225328e+002
5.567867e+002,5.218759e+002
5.577510e+002,5.207107e+002
5.587152e+002,5.185201e+002
5.596794e+002,5.143987e+002
5.606437e+002,5.111859e+002
5.616079e+002,5.109565e+002
5.625721e+002,5.120597e+002
5.635364e+002,5.121814e+002
5.645006e+002,5.093614e+002
5.654648e+002,5.037552e+002
5.664291e+002,4.974408e+002
5.673933e+002,4.912749e+002
5.683575e+002,4.872246e+002
5.693218e+002,4.865429e+002
5.702860e+002,4.888736e+002
5.712502e+002,4.890032e+002
5.722145e+002,4.865410e+002
5.731787e+002,4.829588e+002
5.741429e+002,4.789858e+002
5.751072e+002,4.750009e+002
5.760714e+002,4.709931e+002
5.770356e+002,4.656880e+002
5.779999e+002,4.617072e+002
5.789641e+002,4.607528e+002
5.799283e+002,4.616038e+002
5.808926e+002,4.619040e+002
5.818568e+002,4.592126e+002
5.828210e+002,4.538104e+002
5.837853e+002,4.489773e+002
5.847495e+002,4.449257e+002
5.857137e+002,4.417934e+002
5.866780e+002,4.399276e+002
5.876422e+002,4.400327e+002
5.886064e+002,4.383180e+002
5.895707e+002,4.335931e+002
5.905349e+002,4.289967e+002
5.914991e+002,4.259654e+002
5.924634e+002,4.244067e+002
5.934276e+002,4.226859e+002
5.943918e+002,4.201819e+002
5.953560e+002,4.173985e+002
5.963203e+002,4.139189e+002
5.972845e+002,4.099524e+002
5.982487e+002,4.062740e+002
5.992130e+002,4.043304e+002
6.001772e+002,4.043612e+002
6.011414e+002,4.033553e+002
6.021057e+002,4.004707e+002
6.030699e+002,3.959465e+002
6.040341e+002,3.904499e+002
6.049984e+002,3.842705e+002
6.059626e+002,3.777167e+002
6.069268e+002,3.705714e+002
6.078911e+002,3.646021e+002
6.088553e+002,3.607135e+002
6.098195e+002,3.585823e+002
6.107838e+002,3.562951e+002
6.117480e+002,3.534570e+002
6.127122e+002,3.503753e+002
6.136765e+002,3.465293e+002
6.146407e+002,3.419103e+002
6.156049e+002,3.369925e+002
6.165692e+002,3.327560e+002
6.175334e+002,3.293583e+002
6.184976e+002,3.260812e+002
6.194619e+002,3.231547e+002
6.204261e+002,3.203734e+002
6.213903e+002,3.172781e+002
6.223546e+002,3.133691e+002
6.233188e+002,3.095620e+002
6.242830e+002,3.049818e+002
6.252473e+002,3.009896e+002
6.262115e+002,2.988751e+002
6.271757e+002,2.988336e+002
6.281400e+002,2.989107e+002
6.291042e+002,2.982988e+002
6.300684e+002,2.968505e+002
6.310327e+002,2.938976e+002
6.319969e+002,2.897288e+002
6.329611e+002,2.852978e+002
6.339254e+002,2.818051e+002
6.348896e+002,2.789362e+002
6.358538e+002,2.756704e+002
6.368181e+002,2.722210e+002
6.377823e+002,2.687336e+002
6.387465e+002,2.652128e+002
6.397108e+002,2.615118e+002
6.406750e+002,2.585211e+002
6.416392e+002,2.562052e+002
6.426035e+002,2.536732e+002
6.435677e+002,2.506265e+002
6.445319e+002,2.471849e+002
6.454962e+002,2.437597e+002
6.464604e+002,2.402434e+002
6.474246e+002,2.373525e+002
6.483889e+002,2.355921e+002
6.493531e+002,2.346256e+002
6.503173e+002,2.338853e+002
6.512816e+002,2.329328e+002
6.522458e+002,2.317980e+002
6.532100e+002,2.292939e+002
6.541743e+002,2.252797e+002
6.551385e+002,2.212459e+002
6.561027e+002,2.184645e+002
6.570670e+002,2.171064e+002
6.580312e+002,2.146303e+002
6.589954e+002,2.091014e+002
6.599597e+002,2.037404e+002
6.609239e+002,2.002294e+002
6.618881e+002,1.985427e+002
6.628524e+002,1.974300e+002
6.638166e+002,1.963458e+002
6.647808e+002,1.947919e+002
6.657451e+002,1.916086e+002
6.667093e+002,1.872747e+002
6.676735e+002,1.832126e+002
6.686378e+002,1.808836e+002
6.696020e+002,1.802213e+002
6.705662e+002,1.784663e+002
6.715305e+002,1.756197e+002
6.724947e+002,1.721080e+002
6.734589e+002,1.678212e+002
6.744232e+002,1.630768e+002
6.753874e+002,1.598925e+002
6.763516e+002,1.597457e+002
6.773159e+002,1.598148e+002
6.782801e+002,1.598196e+002
6.792443e+002,1.592244e+002
6.802086e+002,1.572650e+002
6.811728e+002,1.531928e+002
6.821370e+002,1.485584e+002
6.831013e+002,1.459362e+002
6.840655e+002,1.447770e+002
6.850297e+002,1.437905e+002
6.859940e+002,1.420767e+002
6.869582e+002,1.397045e+002
6.879224e+002,1.379484e+002
6.888867e+002,1.371641e+002
6.898509e+002,1.359180e+002
6.908151e+002,1.341072e+002
6.917794e+002,1.319820e+002
6.927436e+002,1.297322e+002
6.937078e+002,1.269189e+002
6.946721e+002,1.245130e+002
6.956363e+002,1.231034e+002
6.966005e+002,1.222086e+002
6.975648e+002,1.211419e+002
6.985290e+002,1.194674e+002
6.994932e+002,1.174119e+002
7.004575e+002,1.163255e+002
7.014217e+002,1.155667e+002
7.023859e+002,1.135652e+002
7.033502e+002,1.099549e+002
7.043144e+002,1.057498e+002
7.052786e+002,1.030128e+002
7.062429e+002,1.025737e+002
7.072071e+002,1.012063e+002
7.081713e+002,9.834654e+001
7.091356e+002,9.552497e+001
7.100998e+002,9.397623e+001
7.110640e+002,9.381143e+001
7.120283e+002,9.377554e+001
7.129925e+002,9.383397e+001
7.139567e+002,9.343098e+001
7.149210e+002,9.184185e+001
7.158852e+002,8.933037e+001
7.168494e+002,8.692279e+001
7.178137e+002,8.595808e+001
7.187779e+002,8.634650e+001
7.197421e+002,8.621263e+001
7.207064e+002,8.536694e+001
7.216706e+002,8.435048e+001
7.226348e+002,8.377299e+001
7.235991e+002,8.385526e+001
7.245633e+002,8.411674e+001
7.255275e+002,8.445256e+001
7.264918e+002,8.427101e+001
7.274560e+002,8.334320e+001
7.284202e+002,8.207697e+001
7.293845e+002,8.121705e+001
7.303487e+002,8.112943e+001
7.313129e+002,8.131519e+001
7.322772e+002,8.169525e+001
7.332414e+002,8.196394e+001
7.342056e+002,8.162082e+001
7.351699e+002,8.042102e+001
7.361341e+002,7.874107e+001
7.370983e+002,7.776134e+001
7.380626e+002,7.704053e+001
7.390268e+002,7.656473e+001
7.399910e+002,7.670039e+001
7.409553e+002,7.747175e+001
7.419195e+002,7.857564e+001
7.428837e+002,8.015849e+001
7.438480e+002,8.069563e+001
7.448122e+002,7.954427e+001
7.457764e+002,7.843813e+001
7.467407e+002,7.895567e+001
7.477049e+002,8.146431e+001
7.486691e+002,8.443866e+001
7.496334e+002,8.553400e+001
7.505976e+002,8.544447e+001
7.515618e+002,8.526042e+001
7.525261e+002,8.530843e+001
7.534903e+002,8.587722e+001
7.544545e+002,8.744553e+001
7.554188e+002,9.081023e+001
7.563830e+002,9.312119e+001
7.573472e+002,9.294180e+001
7.583115e+002,9.231760e+001
7.592757e+002,9.290270e+001
7.602399e+002,9.486196e+001
7.612042e+002,9.642860e+001
7.621684e+002,9.546199e+001
7.631326e+002,9.453457e+001
7.640969e+002,9.450561e+001
7.650611e+002,9.547251e+001
7.660253e+002,9.791044e+001
7.669896e+002,1.023805e+002
7.679538e+002,1.077462e+002
7.689180e+002,1.088730e+002
7.698823e+002,1.062017e+002
7.708465e+002,1.040702e+002
7.718107e+002,1.050116e+002
7.727750e+002,1.082586e+002
7.737392e+002,1.096903e+002
7.747034e+002,1.070134e+002
7.756677e+002,1.060354e+002
7.766319e+002,1.079041e+002
7.775961e+002,1.105348e+002
7.785604e+002,1.123471e+002
7.795246e+002,1.129538e+002
7.804888e+002,1.126101e+002
7.814531e+002,1.104116e+002
7.824173e+002,1.080014e+002
7.833815e+002,1.063525e+002
7.843458e+002,1.058623e+002
7.853100e+002,1.068158e+002
7.862742e+002,1.095483e+002
7.872385e+002,1.138166e+002
7.882027e+002,1.151348e+002
7.891669e+002,1.126338e+002
7.901312e+002,1.094355e+002
7.910954e+002,1.073860e+002
7.920596e+002,1.067116e+002
7.930239e+002,1.067343e+002
7.939881e+002,1.083303e+002
7.949523e+002,1.088004e+002
7.959166e+002,1.060299e+002
7.968808e+002,1.021188e+002
7.978450e+002,9.992048e+001
7.988093e+002,1.009123e+002
7.997735e+002,1.032636e+002
8.007377e+002,1.040978e+002
8.017020e+002,1.038542e+002
8.026662e+002,1.028297e+002
8.036304e+002,1.010552e+002
8.045947e+002,9.883646e+001
8.055589e+002,9.677624e+001
8.065231e+002,9.475125e+001
8.074874e+002,9.310952e+001
8.084516e+002,9.247946e+001
8.094158e+002,9.159490e+001
8.103801e+002,8.881264e+001
8.113443e+002,8.479921e+001
8.123085e+002,8.403682e+001
8.132728e+002,9.186685e+001
8.142370e+002,9.972260e+001
8.152012e+002,1.027538e+002
8.161655e+002,1.012552e+002
8.171297e+002,9.647027e+001
8.180939e+002,8.959303e+001
8.190582e+002,8.182305e+001
8.200224e+002,7.649529e+001
8.209866e+002,7.328173e+001
8.219509e+002,7.046320e+001
8.229151e+002,6.727434e+001
8.238793e+002,6.403677e+001
8.248436e+002,6.169211e+001
8.258078e+002,6.069719e+001
8.267720e+002,5.988655e+001
8.277363e+002,5.874493e+001
8.287005e+002,5.760394e+001
8.296647e+002,5.724390e+001
8.306290e+002,5.763144e+001
8.315932e+002,5.757758e+001
8.325574e+002,5.554797e+001
8.335217e+002,5.245838e+001
8.344859e+002,4.984274e+001
8.354501e+002,4.763171e+001
8.364144e+002,4.583544e+001
8.373786e+002,4.466467e+001
8.383428e+002,4.421174e+001
8.393071e+002,4.317680e+001
8.402713e+002,4.067648e+001
8.412355e+002,3.878407e+001
8.421998e+002,3.806320e+001
8.431640e+002,3.785729e+001
8.441282e+002,3.707932e+001
8.450925e+002,3.518581e+001
8.460567e+002,3.390945e+001
8.470209e+002,3.545464e+001
8.479852e+002,3.729250e+001
8.489494e+002,3.735944e+001
8.499136e+002,3.549519e+001
8.508779e+002,3.288309e+001
8.518421e+002,3.091522e+001
8.528063e+002,2.962846e+001
8.537706e+002,2.958018e+001
8.547348e+002,3.114238e+001
8.556990e+002,3.287544e+001
8.566633e+002,3.394183e+001
8.576275e+002,3.429411e+001
8.585917e+002,3.424999e+001
8.595560e+002,3.368140e+001
8.605202e+002,3.332372e+001
8.614844e+002,3.364719e+001
8.624487e+002,3.423917e+001
8.634129e+002,3.434551e+001
8.643771e+002,3.357307e+001
8.653414e+002,3.252734e+001
8.663056e+002,3.278448e+001
8.672698e+002,3.407850e+001
8.682341e+002,3.477415e+001
8.691983e+002,3.438948e+001
8.701625e+002,3.368757e+001
8.711268e+002,3.377754e+001
8.720910e+002,3.482669e+001
8.730552e+002,3.438929e+001
8.740195e+002,3.217944e+001
8.749837e+002,3.079821e+001
8.759479e+002,3.101447e+001
8.769122e+002,3.198357e+001
8.778764e+002,3.217361e+001
8.788406e+002,3.068172e+001
8.798049e+002,2.894656e+001
8.807691e+002,2.873199e+001
8.817333e+002,2.944590e+001
8.826976e+002,3.051358e+001
8.836618e+002,3.160471e+001
8.846260e+002,3.238781e+001
8.855903e+002,3.227072e+001
8.865545e+002,3.091621e+001
8.875187e+002,3.061648e+001
8.884830e+002,3.206620e+001
8.894472e+002,3.367420e+001
8.904114e+002,3.482451e+001
8.913757e+002,3.554539e+001
8.923399e+002,3.553113e+001
8.933041e+002,3.344924e+001
8.942684e+002,3.183447e+001
8.952326e+002,3.228686e+001
8.961968e+002,3.358093e+001
8.971611e+002,3.437350e+001
8.981253e+002,3.425665e+001
8.990895e+002,3.399303e+001
9.000538e+002,3.450536e+001
9.010180e+002,3.565295e+001
9.019822e+002,3.719302e+001
9.029465e+002,3.930885e+001
9.039107e+002,4.133631e+001
9.048749e+002,4.255904e+001
9.058392e+002,4.284941e+001
9.068034e+002,4.287563e+001
9.077676e+002,4.134981e+001
9.087319e+002,4.135726e+001
9.096961e+002,4.510869e+001
9.106603e+002,5.031753e+001
9.116246e+002,5.354853e+001
9.125888e+002,5.329371e+001
9.135530e+002,5.244607e+001
9.145173e+002,5.557738e+001
9.154815e+002,5.991288e+001
9.164457e+002,6.201743e+001
9.174100e+002,6.169383e+001
9.183742e+002,6.068221e+001
9.193384e+002,6.075823e+001
9.203027e+002,6.190477e+001
9.212669e+002,6.394921e+001
9.222311e+002,6.690217e+001
9.231954e+002,6.930003e+001
9.241596e+002,7.097117e+001
9.251238e+002,7.253330e+001
9.260881e+002,7.479113e+001
9.270523e+002,7.802456e+001
9.280165e+002,8.101814e+001
9.289808e+002,8.202484e+001
9.299450e+002,8.301881e+001
9.309092e+002,8.612003e+001
9.318735e+002,9.112209e+001
9.328377e+002,9.588588e+001
9.338019e+002,9.800472e+001
9.347662e+002,9.748777e+001
9.357304e+002,9.813069e+001
9.366946e+002,1.006556e+002
9.376589e+002,1.033913e+002
9.386231e+002,1.053728e+002
9.395873e+002,1.067817e+002
9.405516e+002,1.085934e+002
9.415158e+002,1.115357e+002
9.424800e+002,1.139462e+002
9.434443e+002,1.150585e+002
9.444085e+002,1.156967e+002
9.453727e+002,1.159154e+002
9.463370e+002,1.160708e+002
9.473012e+002,1.170180e+002
9.482654e+002,1.196269e+002
9.492297e+002,1.229494e+002
9.501939e+002,1.236328e+002
9.511581e+002,1.222004e+002
9.521224e+002,1.213618e+002
9.530866e+002,1.225900e+002
9.540508e+002,1.247720e+002
9.550151e+002,1.251005e+002
9.559793e+002,1.221085e+002
9.569435e+002,1.200294e+002
9.579078e+002,1.209680e+002
9.588720e+002,1.229484e+002
9.598362e+002,1.249658e+002
9.608005e+002,1.265922e+002
9.617647e+002,1.275905e+002
9.627289e+002,1.277132e+002
9.636932e+002,1.273858e+002
9.646574e+002,1.275460e+002
9.656216e+002,1.278613e+002
9.665859e+002,1.276856e+002
9.675501e+002,1.267619e+002
9.685143e+002,1.262311e+002
9.694786e+002,1.285014e+002
9.704428e+002,1.354503e+002
9.714070e+002,1.404363e+002
9.723713e+002,1.416433e+002
9.733355e+002,1.418092e+002
9.742997e+002,1.418441e+002
9.752640e+002,1.425612e+002
9.762282e+002,1.447914e+002
9.771924e+002,1.487399e+002
9.781567e+002,1.533759e+002
9.791209e+002,1.584428e+002
9.800851e+002,1.633967e+002
9.810494e+002,1.672604e+002
9.820136e+002,1.699421e+002
9.829778e+002,1.720686e+002
9.839421e+002,1.742290e+002
9.849063e+002,1.760095e+002
9.858705e+002,1.773100e+002
9.868348e+002,1.792183e+002
9.877990e+002,1.809505e+002
9.887632e+002,1.817630e+002
9.897275e+002,1.821266e+002
9.906917e+002,1.828907e+002
9.916559e+002,1.840414e+002
9.926202e+002,1.843520e+002
9.935844e+002,1.833602e+002
9.945486e+002,1.820614e+002
9.955129e+002,1.807934e+002
9.964771e+002,1.798934e+002
9.974413e+002,1.798900e+002
9.984056e+002,1.811468e+002
9.993698e+002,1.832272e+002
1.000334e+003,1.839965e+002
1.001298e+003,1.828974e+002
1.002263e+003,1.821138e+002
1.003227e+003,1.818475e+002
1.004191e+003,1.819749e+002
1.005155e+003,1.824202e+002
1.006119e+003,1.831311e+002
1.007084e+003,1.837994e+002
1.008048e+003,1.844736e+002
1.009012e+003,1.855841e+002
1.009976e+003,1.867941e+002
1.010941e+003,1.881261e+002
1.011905e+003,1.899847e+002
1.012869e+003,1.926275e+002
1.013833e+003,1.957190e+002
1.014798e+003,1.985890e+002
1.015762e+003,2.018559e+002
1.016726e+003,2.048100e+002
1.017690e+003,2.068346e+002
1.018654e+003,2.089347e+002
1.019619e+003,2.114583e+002
1.020583e+003,2.143154e+002
1.021547e+003,2.180073e+002
1.022511e+003,2.232417e+002
1.023476e+003,2.278980e+002
1.024440e+003,2.314784e+002
1.025404e+003,2.344872e+002
1.026368e+003,2.368900e+002
1.027333e+003,2.389792e+002
1.028297e+003,2.418467e+002
1.029261e+003,2.468412e+002
1.030225e+003,2.533842e+002
1.031190e+003,2.582056e+002
1.032154e+003,2.621041e+002
1.033118e+003,2.652453e+002
1.034082e+003,2.665400e+002
1.035047e+003,2.669272e+002
1.036011e+003,2.688290e+002
1.036975e+003,2.725638e+002
1.037939e+003,2.765719e+002
1.038903e+003,2.812908e+002
1.039868e+003,2.864310e+002
1.040832e+003,2.917082e+002
1.041796e+003,2.967795e+002
1.042760e+003,3.011108e+002
1.043725e+003,3.044172e+002
1.044689e+003,3.072321e+002
1.045653e+003,3.111499e+002
1.046617e+003,3.161165e+002
1.047582e+003,3.208732e+002
1.048546e+003,3.259366e+002
1.049510e+003,3.311866e+002
1.050474e+003,3.361004e+002
1.051438e+003,3.403630e+002
1.052403e+003,3.440932e+002
1.053367e+003,3.456962e+002
1.054331e+003,3.487826e+002
1.055295e+003,3.558308e+002
1.056260e+003,3.643398e+002
1.057224e+003,3.722321e+002
1.058188e+003,3.788282e+002
1.059152e+003,3.842566e+002
1.060117e+003,3.883722e+002
1.061081e+003,3.914200e+002
1.062045e+003,3.946041e+002
1.063009e+003,3.973397e+002
1.063974e+003,4.009779e+002
1.064938e+003,4.075328e+002
1.065902e+003,4.158555e+002
1.066866e+003,4.225500e+002
1.067830e+003,4.267980e+002
1.068795e+003,4.302650e+002
1.069759e+003,4.331898e+002
1.070723e+003,4.362070e+002
1.071687e+003,4.393061e+002
1.072652e+003,4.432878e+002
1.073616e+003,4.491953e+002
1.074580e+003,4.571457e+002
1.075544e+003,4.655163e+002
1.076509e+003,4.723459e+002
1.077473e+003,4.779684e+002
1.078437e+003,4.836359e+002
1.079401e+003,4.896735e+002
1.080365e+003,4.953858e+002
1.081330e+003,4.997330e+002
1.082294e+003,5.028350e+002
1.083258e+003,5.064162e+002
1.084222e+003,5.114005e+002
1.085187e+003,5.155179e+002
1.086151e+003,5.177463e+002
1.087115e+003,5.197018e+002
1.088079e+003,5.225013e+002
1.089043e+003,5.260206e+002
1.090008e+003,5.295973e+002
1.090972e+003,5.328879e+002
1.091936e+003,5.354220e+002
1.092900e+003,5.351634e+002
1.093865e+003,5.325361e+002
1.094829e+003,5.309016e+002
1.095793e+003,5.319417e+002
1.096757e+003,5.333657e+002
1.097722e+003,5.320239e+002
1.098686e+003,5.274711e+002
1.099650e+003,5.226132e+002
1.100614e+003,5.178705e+002
1.101578e+003,5.146448e+002
1.102543e+003,5.144993e+002
1.103507e+003,5.147621e+002
1.104471e+003,5.122359e+002
1.105435e+003,5.063339e+002
1.106400e+003,4.993588e+002
1.107364e+003,4.940753e+002
1.108328e+003,4.904168e+002
1.109292e+003,4.857613e+002
1.110257e+003,4.802831e+002
1.111221e+003,4.758600e+002
1.112185e+003,4.734225e+002
1.113149e+003,4.708121e+002
1.114114e+003,4.650847e+002
1.115078e+003,4.561840e+002
1.116042e+003,4.481109e+002
1.117006e+003,4.431582e+002
1.117970e+003,4.379029e+002
1.118935e+003,4.304637e+002
1.119899e+003,4.217264e+002
1.120863e+003,4.128804e+002
1.121827e+003,4.047205e+002
1.122792e+003,3.978407e+002
1.123756e+003,3.928495e+002
1.124720e+003,3.887725e+002
1.125684e+003,3.816478e+002
1.126649e+003,3.715630e+002
1.127613e+003,3.628655e+002
1.128577e+003,3.578537e+002
1.129541e+003,3.545204e+002
1.130505e+003,3.497059e+002
1.131470e+003,3.429991e+002
1.132434e+003,3.359142e+002
1.133398e+003,3.290637e+002
1.134362e+003,3.226343e+002
1.135327e+003,3.162900e+002
1.136291e+003,3.101911e+002
1.137255e+003,3.049108e+002
1.138219e+003,3.006122e+002
1.139184e+003,2.966103e+002
1.140148e+003,2.917557e+002
1.141112e+003,2.856960e+002
1.142076e+003,2.804044e+002
1.143041e+003,2.772830e+002
1.144005e+003,2.732667e+002
1.144969e+003,2.661369e+002
1.145933e+003,2.581200e+002
1.146897e+003,2.528919e+002
1.147862e+003,2.507282e+002
1.148826e+003,2.478405e+002
1.149790e+003,2.421243e+002
1.150754e+003,2.363497e+002
1.151719e+003,2.321639e+002
1.152683e+003,2.290657e+002
1.153647e+003,2.263316e+002
1.154611e+003,2.235907e+002
1.155576e+003,2.204941e+002
1.156540e+003,2.163502e+002
1.157504e+003,2.106587e+002
1.158468e+003,2.043776e+002
1.159432e+003,1.971557e+002
1.160397e+003,1.909552e+002
1.161361e+003,1.872641e+002
1.162325e+003,1.846104e+002
1.163289e+003,1.804567e+002
1.164254e+003,1.744407e+002
1.165218e+003,1.699202e+002
1.166182e+003,1.700740e+002
1.167146e+003,1.707468e+002
1.168111e+003,1.682275e+002
1.169075e+003,1.634877e+002
1.170039e+003,1.580485e+002
1.171003e+003,1.525669e+002
1.171968e+003,1.472801e+002
1.172932e+003,1.425774e+002
1.173896e+003,1.385791e+002
1.174860e+003,1.351869e+002
1.175824e+003,1.317513e+002
1.176789e+003,1.292605e+002
1.177753e+003,1.291879e+002
1.178717e+003,1.292735e+002
1.179681e+003,1.271446e+002
1.180646e+003,1.229180e+002
1.181610e+003,1.187758e+002
1.182574e+003,1.159327e+002
1.183538e+003,1.135782e+002
1.184503e+003,1.109697e+002
1.185467e+003,1.081040e+002
1.186431e+003,1.046417e+002
1.187395e+003,1.003984e+002
1.188359e+003,9.614612e+001
1.189324e+003,9.298696e+001
1.190288e+003,9.108270e+001
1.191252e+003,8.942008e+001
1.192216e+003,8.781754e+001
1.193181e+003,8.638286e+001
1.194145e+003,8.520674e+001
1.195109e+003,8.362823e+001
1.196073e+003,8.148803e+001
1.197038e+003,7.901166e+001
1.198002e+003,7.626412e+001
1.198966e+003,7.317340e+001
1.199930e+003,7.031017e+001
1.200895e+003,6.896844e+001
1.201859e+003,6.860346e+001
1.202823e+003,6.693053e+001
1.203787e+003,6.359421e+001
1.204751e+003,6.000729e+001
1.205716e+003,5.703855e+001
1.206680e+003,5.460938e+001
1.207644e+003,5.248802e+001
1.208608e+003,5.078624e+001
1.209573e+003,4.862896e+001
1.210537e+003,4.506239e+001
1.211501e+003,4.236143e+001
1.212465e+003,4.209049e+001
1.213430e+003,4.311839e+001
1.214394e+003,4.348877e+001
1.215358e+003,4.229105e+001
1.216322e+003,4.016493e+001
1.217286e+003,3.828645e+001
1.218251e+003,3.681766e+001
1.219215e+003,3.524249e+001
1.220179e+003,3.389347e+001
1.221143e+003,3.233932e+001
1.222108e+003,2.975969e+001
1.223072e+003,2.742121e+001
1.224036e+003,2.666373e+001
1.225000e+003,2.718661e+001
1.225965e+003,2.765244e+001
1.226929e+003,2.783880e+001
1.227893e+003,2.719564e+001
1.228857e+003,2.586585e+001
1.229822e+003,2.471876e+001
1.230786e+003,2.408657e+001
1.231750e+003,2.377648e+001
1.232714e+003,2.353329e+001
1.233678e+003,2.323709e+001
1.234643e+003,2.264848e+001
1.235607e+003,2.101062e+001
1.236571e+003,1.770383e+001
1.237535e+003,1.596175e+001
1.238500e+003,1.622214e+001
1.239464e+003,1.685210e+001
1.240428e+003,1.736775e+001
1.241392e+003,1.737965e+001
1.242357e+003,1.636030e+001
1.243321e+003,1.443861e+001
1.244285e+003,1.311217e+001
1.245249e+003,1.365816e+001
1.246214e+003,1.521590e+001
1.247178e+003,1.621524e+001
1.248142e+003,1.640606e+001
1.249106e+003,1.572336e+001
1.250070e+003,1.423238e+001
1.251035e+003,1.240945e+001
1.251999e+003,1.054442e+001
1.252963e+003,8.550003e+000
1.253927e+003,7.583801e+000
1.254892e+003,8.293030e+000
1.255856e+003,9.516983e+000
1.256820e+003,1.113071e+001
1.257784e+003,1.278982e+001
1.258749e+003,1.461806e+001
1.259713e+003,1.625723e+001
1.260677e+003,1.679662e+001
1.261641e+003,1.570486e+001
1.262605e+003,1.380946e+001
1.263570e+003,1.252767e+001
1.264534e+003,1.199296e+001
1.265498e+003,1.204499e+001
1.266462e+003,1.329290e+001
1.267427e+003,1.395782e+001
1.268391e+003,1.247901e+001
1.269355e+003,9.891693e+000
1.270319e+003,8.174759e+000
1.271284e+003,7.690079e+000
1.272248e+003,7.650963e+000
1.273212e+003,8.462631e+000
1.274176e+003,9.307816e+000
1.275141e+003,8.179878e+000
1.276105e+003,6.162857e+000
1.277069e+003,5.732452e+000
1.278033e+003,7.318794e+000
1.278997e+003,8.769646e+000
1.279962e+003,7.976555e+000
1.280926e+003,5.818733e+000
1.281890e+003,5.790314e+000
1.282854e+003,8.454056e+000
1.283819e+003,9.921333e+000
1.284783e+003,1.031221e+001
1.285747e+003,1.022313e+001
1.286711e+003,1.007246e+001
1.287676e+003,9.999153e+000
1.288640e+003,9.779060e+000
1.289604e+003,9.229645e+000
1.290568e+003,8.672188e+000
1.291532e+003,8.476852e+000
1.292497e+003,8.407036e+000
1.293461e+003,7.985298e+000
1.294425e+003,7.472931e+000
1.295389e+003,7.582108e+000
1.296354e+003,8.736336e+000
1.297318e+003,9.628372e+000
1.298282e+003,8.601784e+000
1.299246e+003,5.929642e+000
1.300211e+003,3.773323e+000
1.301175e+003,2.314278e+000
1.302139e+003,2.287323e+000
1.303103e+003,4.293823e+000
1.304068e+003,6.552841e+000
1.305032e+003,8.910934e+000
1.305996e+003,1.070422e+001
1.306960e+003,1.049045e+001
1.307924e+003,8.072952e+000
1.308889e+003,5.567329e+000
1.309853e+003,5.559158e+000
1.310817e+003,7.378578e+000
1.311781e+003,7.632889e+000
1.312746e+003,6.362617e+000
1.313710e+003,5.846504e+000
1.314674e+003,6.515594e+000
1.315638e+003,7.331726e+000
1.316603e+003,7.183151e+000
1.317567e+003,6.096916e+000
1.318531e+003,5.098633e+000
1.319495e+003,5.002167e+000
1.320459e+003,5.610298e+000
1.321424e+003,6.199287e+000
1.322388e+003,6.547256e+000
1.323352e+003,7.073341e+000
1.324316e+003,7.705887e+000
1.325281e+003,7.626839e+000
1.326245e+003,6.307747e+000
1.327209e+003,4.643585e+000
1.328173e+003,3.737061e+000
1.329138e+003,3.585320e+000
1.330102e+003,4.327866e+000
1.331066e+003,7.277649e+000
1.332030e+003,9.239410e+000
1.332995e+003,8.444405e+000
1.333959e+003,6.948616e+000
1.334923e+003,5.791580e+000
1.335887e+003,5.157265e+000
1.336851e+003,5.404739e+000
1.337816e+003,6.660042e+000
1.338780e+003,7.927811e+000
1.339744e+003,7.494232e+000
1.340708e+003,5.247498e+000
1.341673e+003,4.069023e+000
1.342637e+003,4.631279e+000
1.343601e+003,4.913826e+000
1.344565e+003,4.483307e+000
1.345530e+003,4.429886e+000
1.346494e+003,5.892952e+000
1.347458e+003,8.183609e+000
1.348422e+003,9.284286e+000
1.349386e+003,8.394066e+000
1.350351e+003,7.230659e+000
1.351315e+003,7.495255e+000
1.352279e+003,8.542877e+000
1.353243e+003,9.289497e+000
1.354208e+003,9.765373e+000
1.355172e+003,9.806755e+000
1.356136e+003,9.077827e+000
1.357100e+003,7.937897e+000
1.358065e+003,6.917496e+000
1.359029e+003,6.153152e+000
1.359993e+003,5.837852e+000
1.360957e+003,6.273972e+000
1.361922e+003,6.756737e+000
1.362886e+003,6.973892e+000
1.363850e+003,7.254173e+000
1.364814e+003,8.044411e+000
1.365778e+003,8.558487e+000
1.366743e+003,7.416069e+000
1.367707e+003,4.625183e+000
1.368671e+003,2.086685e+000
1.369635e+003,1.810036e+000
1.370600e+003,3.429039e+000
1.371564e+003,4.311661e+000
1.372528e+003,3.110687e+000
1.373492e+003,3.835808e+000
1.374457e+003,8.357819e+000
1.375421e+003,1.210470e+001
1.376385e+003,1.309664e+001
1.377349e+003,1.241423e+001
1.378313e+003,1.107808e+001
1.379278e+003,9.405029e+000
1.380242e+003,8.236389e+000
1.381206e+003,8.279190e+000
1.382170e+003,9.148544e+000
1.383135e+003,1.053586e+001
1.384099e+003,1.205398e+001
1.385063e+003,1.237698e+001
1.386027e+003,1.080901e+001
1.386992e+003,8.859894e+000
1.387956e+003,7.619537e+000
1.388920e+003,7.297577e+000
1.389884e+003,8.334526e+000
1.390849e+003,1.084988e+001
1.391813e+003,1.210450e+001
1.392777e+003,1.003553e+001
1.393741e+003,7.770897e+000
1.394705e+003,7.913078e+000
1.395670e+003,9.070587e+000
1.396634e+003,9.526520e+000
1.397598e+003,9.010536e+000
1.398562e+003,8.267944e+000
1.399527e+003,7.941872e+000
1.400491e+003,8.014496e+000
1.401455e+003,8.120705e+000
1.402419e+003,8.203979e+000
1.403384e+003,8.791656e+000
1.404348e+003,1.043416e+001
1.405312e+003,1.058058e+001
1.406276e+003,9.023834e+000
1.407240e+003,7.802368e+000
1.408205e+003,7.074257e+000
1.409169e+003,6.750160e+000
1.410133e+003,7.359612e+000
1.411097e+003,8.869514e+000
1.412062e+003,1.000793e+001
1.413026e+003,9.894325e+000
1.413990e+003,9.322678e+000
1.414954e+003,9.339363e+000
1.415919e+003,9.664101e+000
1.416883e+003,9.818260e+000
1.417847e+003,9.269981e+000
1.418811e+003,8.742836e+000
1.419776e+003,9.250374e+000
1.420740e+003,9.890549e+000
1.421704e+003,8.635178e+000
1.422668e+003,5.661491e+000
1.423632e+003,4.533409e+000
1.424597e+003,7.200134e+000
1.425561e+003,1.073680e+001
1.426525e+003,1.259155e+001
1.427489e+003,1.329688e+001
1.428454e+003,1.286723e+001
1.429418e+003,1.150370e+001
1.430382e+003,1.102744e+001
1.431346e+003,1.251134e+001
1.432311e+003,1.427162e+001
1.433275e+003,1.418787e+001
1.434239e+003,1.284314e+001
1.435203e+003,1.229328e+001
1.436167e+003,1.234940e+001
1.437132e+003,1.255738e+001
1.438096e+003,1.334912e+001
1.439060e+003,1.343342e+001
1.440024e+003,1.195193e+001
1.440989e+003,9.901184e+000
1.441953e+003,8.325966e+000
1.442917e+003,7.410995e+000
1.443881e+003,6.989624e+000
1.444846e+003,7.166466e+000
1.445810e+003,8.121284e+000
1.446774e+003,9.679199e+000
1.447738e+003,1.195772e+001
1.448703e+003,1.332170e+001
1.449667e+003,1.371120e+001
1.450631e+003,1.357783e+001
1.451595e+003,1.282283e+001
1.452559e+003,1.213187e+001
1.453524e+003,1.198939e+001
1.454488e+003,1.227758e+001
1.455452e+003,1.257819e+001
1.456416e+003,1.265913e+001
1.457381e+003,1.265159e+001
1.458345e+003,1.276937e+001
1.459309e+003,1.292336e+001
1.460273e+003,1.331937e+001
1.461238e+003,1.488891e+001
1.462202e+003,1.536087e+001
1.463166e+003,1.333407e+001
1.464130e+003,1.124355e+001
1.465094e+003,9.816391e+000
1.466059e+003,8.946068e+000
1.467023e+003,9.575081e+000
1.467987e+003,1.175330e+001
1.468951e+003,1.252633e+001
1.469916e+003,9.964409e+000
1.470880e+003,7.190590e+000
1.471844e+003,7.869781e+000
1.472808e+003,1.028587e+001
1.473773e+003,1.173224e+001
1.474737e+003,1.233763e+001
1.475701e+003,1.288438e+001
1.476665e+003,1.380515e+001
1.477630e+003,1.503680e+001
1.478594e+003,1.630460e+001
1.479558e+003,1.729641e+001
1.480522e+003,1.778286e+001
1.481486e+003,1.796586e+001
1.482451e+003,1.775599e+001
1.483415e+003,1.634862e+001
1.484379e+003,1.530180e+001
1.485343e+003,1.618140e+001
1.486308e+003,1.828847e+001
1.487272e+003,2.040753e+001
1.488236e+003,2.215685e+001
1.489200e+003,2.342321e+001
1.490165e+003,2.403285e+001
1.491129e+003,2.394328e+001
1.492093e+003,2.312284e+001
1.493057e+003,2.162809e+001
1.494021e+003,2.096545e+001
1.494986e+003,2.154586e+001
1.495950e+003,2.270563e+001
1.496914e+003,2.408881e+001
1.497878e+003,2.552430e+001
1.498843e+003,2.715141e+001
1.499807e+003,2.886214e+001
1.500771e+003,3.056860e+001
1.501735e+003,3.210774e+001
1.502700e+003,3.297305e+001
1.503664e+003,3.260992e+001
1.504628e+003,3.129931e+001
1.505592e+003,3.022301e+001
1.506557e+003,2.954444e+001
1.507521e+003,2.985618e+001
1.508485e+003,3.191360e+001
1.509449e+003,3.345088e+001
1.510413e+003,3.408102e+001
1.511378e+003,3.383483e+001
1.512342e+003,3.223611e+001
1.513306e+003,3.024184e+001
1.514270e+003,2.971292e+001
1.515235e+003,3.094798e+001
1.516199e+003,3.203963e+001
1.517163e+003,3.121558e+001
1.518127e+003,2.911396e+001
1.519092e+003,2.739059e+001
1.520056e+003,2.571606e+001
1.521020e+003,2.509245e+001
1.521984e+003,2.654789e+001
1.522948e+003,2.743901e+001
1.523913e+003,2.743812e+001
1.524877e+003,2.681316e+001
1.525841e+003,2.493833e+001
1.526805e+003,2.250389e+001
1.527770e+003,2.138135e+001
1.528734e+003,2.189573e+001
1.529698e+003,2.204635e+001
1.530662e+003,2.019577e+001
1.531627e+003,1.758971e+001
1.532591e+003,1.717762e+001
1.533555e+003,1.930010e+001
1.534519e+003,2.053515e+001
1.535484e+003,2.075452e+001
1.536448e+003,2.034641e+001
1.537412e+003,1.891712e+001
1.538376e+003,1.703870e+001
1.539340e+003,1.517468e+001
1.540305e+003,1.368783e+001
1.541269e+003,1.318378e+001
1.542233e+003,1.362785e+001
1.543197e+003,1.375645e+001
1.544162e+003,1.261487e+001
1.545126e+003,1.090012e+001
1.546090e+003,1.022664e+001
1.547054e+003,1.104035e+001
1.548019e+003,1.244167e+001
1.548983e+003,1.356413e+001
1.549947e+003,1.459975e+001
1.550911e+003,1.637740e+001
1.551875e+003,1.790078e+001
1.552840e+003,1.799498e+001
1.553804e+003,1.729372e+001
1.554768e+003,1.715913e+001
1.555732e+003,1.758772e+001
1.556697e+003,1.745876e+001
1.557661e+003,1.606603e+001
1.558625e+003,1.430069e+001
1.559589e+003,1.353940e+001
1.560554e+003,1.334904e+001
1.561518e+003,1.238770e+001
1.562482e+003,1.029185e+001
1.563446e+003,8.817665e+000
1.564411e+003,9.386215e+000
1.565375e+003,1.086335e+001
1.566339e+003,1.200242e+001
1.567303e+003,1.273745e+001
1.568267e+003,1.281161e+001
1.569232e+003,1.207018e+001
1.570196e+003,1.186372e+001
1.571160e+003,1.325359e+001
1.572124e+003,1.458477e+001
1.573089e+003,1.411530e+001
1.574053e+003,1.299918e+001
1.575017e+003,1.264558e+001
1.575981e+003,1.301361e+001
1.576946e+003,1.343378e+001
1.577910e+003,1.333109e+001
1.578874e+003,1.310333e+001
1.579838e+003,1.425317e+001
1.580802e+003,1.637645e+001
1.581767e+003,1.625013e+001
1.582731e+003,1.301511e+001
1.583695e+003,1.099702e+001
1.584659e+003,1.228352e+001
1.585624e+003,1.374154e+001
1.586588e+003,1.299432e+001
1.587552e+003,1.203568e+001
1.588516e+003,1.304086e+001
1.589481e+003,1.538358e+001
1.590445e+003,1.641075e+001
1.591409e+003,1.492129e+001
1.592373e+003,1.291542e+001
1.593338e+003,1.267255e+001
1.594302e+003,1.352011e+001
1.595266e+003,1.343542e+001
1.596230e+003,1.245231e+001
1.597194e+003,1.131010e+001
1.598159e+003,9.482285e+000
1.599123e+003,8.648758e+000
1.600087e+003,1.107793e+001
1.601051e+003,1.393144e+001
1.602016e+003,1.447655e+001
1.602980e+003,1.333625e+001
1.603944e+003,1.211589e+001
1.604908e+003,1.149161e+001
1.605873e+003,1.212266e+001
1.606837e+003,1.500518e+001
1.607801e+003,1.840511e+001
1.608765e+003,1.876185e+001
1.609729e+003,1.621442e+001
1.610694e+003,1.485530e+001
1.611658e+003,1.565647e+001
1.612622e+003,1.592909e+001
1.613586e+003,1.402509e+001
1.614551e+003,1.290443e+001
1.615515e+003,1.504411e+001
1.616479e+003,1.816139e+001
1.617443e+003,1.989960e+001
1.618408e+003,2.004193e+001
1.619372e+003,1.868764e+001
1.620336e+003,1.568462e+001
1.621300e+003,1.300388e+001
1.622265e+003,1.305045e+001
1.623229e+003,1.480381e+001
1.624193e+003,1.503321e+001
1.625157e+003,1.354430e+001
1.626121e+003,1.311454e+001
1.627086e+003,1.482713e+001
1.628050e+003,1.676929e+001
1.629014e+003,1.766654e+001
1.629978e+003,1.803988e+001
1.630943e+003,1.888950e+001
1.631907e+003,1.973045e+001
1.632871e+003,1.912007e+001
1.633835e+003,1.692957e+001
1.634800e+003,1.488854e+001
1.635764e+003,1.390424e+001
1.636728e+003,1.401065e+001
1.637692e+003,1.538844e+001
1.638656e+003,1.745380e+001
1.639621e+003,1.857929e+001
1.640585e+003,1.853482e+001
1.641549e+003,1.811475e+001
1.642513e+003,1.810589e+001
1.643478e+003,1.827179e+001
1.644442e+003,1.751368e+001
1.645406e+003,1.657848e+001
1.646370e+003,1.683968e+001
1.647335e+003,1.800906e+001
1.648299e+003,1.853086e+001
1.649263e+003,1.782898e+001
1.650227e+003,1.691489e+001
1.651192e+003,1.689499e+001
1.652156e+003,1.713120e+001
1.653120e+003,1.606323e+001
1.654084e+003,1.399088e+001
1.655048e+003,1.319814e+001
1.656013e+003,1.427767e+001
1.656977e+003,1.555454e+001
1.657941e+003,1.564687e+001
1.658905e+003,1.557024e+001
1.659870e+003,1.806353e+001
1.660834e+003,2.178082e+001
1.661798e+003,2.257870e+001
1.662762e+003,1.977747e+001
1.663727e+003,1.713086e+001
1.664691e+003,1.616120e+001
1.665655e+003,1.592165e+001
1.666619e+003,1.595441e+001
1.667583e+003,1.619775e+001
1.668548e+003,1.614288e+001
1.669512e+003,1.565430e+001
1.670476e+003,1.547153e+001
1.671440e+003,1.616299e+001
1.672405e+003,1.736514e+001
1.673369e+003,1.860751e+001
1.674333e+003,1.974988e+001
1.675297e+003,2.088010e+001
1.676262e+003,2.186252e+001
1.677226e+003,2.176481e+001
1.678190e+003,1.998865e+001
1.679154e+003,1.885281e+001
1.680119e+003,2.007644e+001
1.681083e+003,2.123708e+001
1.682047e+003,1.976530e+001
1.683011e+003,1.734187e+001
1.683975e+003,1.726751e+001
1.684940e+003,1.969640e+001
1.685904e+003,2.237726e+001
1.686868e+003,2.429526e+001
1.687832e+003,2.550410e+001
1.688797e+003,2.573810e+001
1.689761e+003,2.520595e+001
1.690725e+003,2.547415e+001
1.691689e+003,2.700892e+001
1.692654e+003,2.773809e+001
1.693618e+003,2.747216e+001
1.694582e+003,2.752364e+001
1.695546e+003,2.742179e+001
1.696510e+003,2.741910e+001
1.697475e+003,2.876473e+001
1.698439e+003,3.045994e+001
1.699403e+003,3.031855e+001
1.700367e+003,2.856553e+001
1.701332e+003,2.750175e+001
1.702296e+003,2.819767e+001
1.703260e+003,2.957532e+001
1.704224e+003,3.030637e+001
1.705189e+003,3.051302e+001
1.706153e+003,3.147409e+001
1.707117e+003,3.335320e+001
1.708081e+003,3.452553e+001
1.709046e+003,3.671216e+001
1.710010e+003,3.802734e+001
1.710974e+003,3.625190e+001
1.711938e+003,3.413974e+001
1.712902e+003,3.312404e+001
1.713867e+003,3.285743e+001
1.714831e+003,3.338185e+001
1.715795e+003,3.469321e+001
1.716759e+003,3.623090e+001
1.717724e+003,3.751752e+001
1.718688e+003,3.837074e+001
1.719652e+003,3.850728e+001
1.720616e+003,3.798632e+001
1.721581e+003,3.757950e+001
1.722545e+003,3.731290e+001
1.723509e+003,3.782927e+001
1.724473e+003,4.026124e+001
1.725438e+003,4.169335e+001
1.726402e+003,3.973679e+001
1.727366e+003,3.783580e+001
1.728330e+003,3.856087e+001
1.729294e+003,4.039775e+001
1.730259e+003,4.116904e+001
1.731223e+003,4.086338e+001
1.732187e+003,4.078448e+001
1.733151e+003,4.135659e+001
1.734116e+003,4.168909e+001
1.735080e+003,4.116065e+001
1.736044e+003,4.026064e+001
1.737008e+003,3.948503e+001
1.737973e+003,3.861172e+001
1.738937e+003,3.731953e+001
1.739901e+003,3.542519e+001
1.740865e+003,3.416784e+001
1.741829e+003,3.444784e+001
1.742794e+003,3.506056e+001
1.743758e+003,3.477058e+001
1.744722e+003,3.425693e+001
1.745686e+003,3.448468e+001
1.746651e+003,3.537511e+001
1.747615e+003,3.631145e+001
1.748579e+003,3.700072e+001
1.749543e+003,3.772427e+001
1.750508e+003,3.963135e+001
1.751472e+003,4.112884e+001
1.752436e+003,3.953247e+001
1.753400e+003,3.600723e+001
1.754365e+003,3.366180e+001
1.755329e+003,3.296465e+001
1.756293e+003,3.274431e+001
1.757257e+003,3.251386e+001
1.758221e+003,3.271775e+001
1.759186e+003,3.399288e+001
1.760150e+003,3.599715e+001
1.761114e+003,3.699454e+001
1.762078e+003,3.622333e+001
1.763043e+003,3.638389e+001
1.764007e+003,3.892593e+001
1.764971e+003,3.974406e+001
1.765935e+003,3.784296e+001
1.766900e+003,3.599809e+001
1.767864e+003,3.558120e+001
1.768828e+003,3.571695e+001
1.769792e+003,3.493657e+001
1.770756e+003,3.380977e+001
1.771721e+003,3.453607e+001
1.772685e+003,3.726269e+001
1.773649e+003,3.890638e+001
1.774613e+003,3.719968e+001
1.775578e+003,3.406618e+001
1.776542e+003,3.287763e+001
1.777506e+003,3.348482e+001
1.778470e+003,3.406126e+001
1.779435e+003,3.461690e+001
1.780399e+003,3.448102e+001
1.781363e+003,3.343153e+001
1.782327e+003,3.277041e+001
1.783292e+003,3.274303e+001
1.784256e+003,3.251926e+001
1.785220e+003,3.169614e+001
1.786184e+003,3.083227e+001
1.787148e+003,3.052004e+001
1.788113e+003,3.067944e+001
1.789077e+003,3.106286e+001
1.790041e+003,3.172747e+001
1.791005e+003,3.165322e+001
1.791970e+003,2.893341e+001
1.792934e+003,2.559618e+001
1.793898e+003,2.621843e+001
1.794862e+003,3.009326e+001
1.795827e+003,3.235600e+001
1.796791e+003,3.194607e+001
1.797755e+003,3.138936e+001
1.798719e+003,3.213370e+001
1.799683e+003,3.295959e+001
1.800648e+003,3.221232e+001
1.801612e+003,3.035922e+001
1.802576e+003,2.922550e+001
1.803540e+003,2.869946e+001
1.804505e+003,2.865805e+001
1.805469e+003,3.083285e+001
1.806433e+003,3.221939e+001
1.807397e+003,3.049541e+001
1.808362e+003,2.842189e+001
1.809326e+003,2.801617e+001
1.810290e+003,2.846216e+001
1.811254e+003,2.878584e+001
1.812219e+003,2.877335e+001
1.813183e+003,2.805801e+001
1.814147e+003,2.646241e+001
1.815111e+003,2.479476e+001
1.816075e+003,2.414696e+001
1.817040e+003,2.472231e+001
1.818004e+003,2.632789e+001
1.818968e+003,2.886054e+001
1.819932e+003,2.990353e+001
1.820897e+003,2.781482e+001
1.821861e+003,2.700389e+001
1.822825e+003,2.951891e+001
1.823789e+003,3.138781e+001
1.824754e+003,3.131869e+001
1.825718e+003,3.117999e+001
1.826682e+003,3.214416e+001
1.827646e+003,3.298402e+001
1.828610e+003,3.166592e+001
1.829575e+003,2.852136e+001
1.830539e+003,2.622411e+001
1.831503e+003,2.575237e+001
1.832467e+003,2.645851e+001
1.833432e+003,2.860728e+001
1.834396e+003,3.086398e+001
1.835360e+003,3.163846e+001
1.836324e+003,3.157163e+001
1.837289e+003,3.119770e+001
1.838253e+003,3.023283e+001
1.839217e+003,2.920994e+001
1.840181e+003,2.853820e+001
1.841146e+003,2.836713e+001
1.842110e+003,2.908543e+001
1.843074e+003,3.021244e+001
1.844038e+003,3.028257e+001
1.845002e+003,2.922412e+001
1.845967e+003,2.871749e+001
1.846931e+003,2.895680e+001
1.847895e+003,2.969453e+001
1.848859e+003,3.127840e+001
1.849824e+003,3.150726e+001
1.850788e+003,2.846756e+001
1.851752e+003,2.599496e+001
1.852716e+003,2.846458e+001
1.853681e+003,3.312688e+001
1.854645e+003,3.481284e+001
1.855609e+003,3.320534e+001
1.856573e+003,3.165810e+001
1.857537e+003,3.156303e+001
1.858502e+003,3.164906e+001
1.859466e+003,3.116138e+001
1.860430e+003,3.092004e+001
1.861394e+003,3.181806e+001
1.862359e+003,3.328318e+001
1.863323e+003,3.369093e+001
1.864287e+003,3.286409e+001
1.865251e+003,3.114644e+001
1.866216e+003,2.868980e+001
1.867180e+003,2.725277e+001
1.868144e+003,2.777583e+001
1.869108e+003,2.873896e+001
1.870073e+003,2.852395e+001
1.871037e+003,2.766327e+001
1.872001e+003,2.776018e+001
1.872965e+003,2.911234e+001
1.873929e+003,3.047290e+001
1.874894e+003,3.121999e+001
1.875858e+003,3.166345e+001
1.876822e+003,3.219250e+001
1.877786e+003,3.280073e+001
1.878751e+003,3.371689e+001
1.879715e+003,3.451404e+001
1.880679e+003,3.406280e+001
1.881643e+003,3.278632e+001
1.882608e+003,3.240071e+001
1.883572e+003,3.343724e+001
1.884536e+003,3.487637e+001
1.885500e+003,3.586905e+001
1.886464e+003,3.620213e+001
1.887429e+003,3.586604e+001
1.888393e+003,3.523363e+001
1.889357e+003,3.438042e+001
1.890321e+003,3.311004e+001
1.891286e+003,3.209523e+001
1.892250e+003,3.123040e+001
1.893214e+003,3.055724e+001
1.894178e+003,3.056609e+001
1.895143e+003,3.107831e+001
1.896107e+003,3.144456e+001
1.897071e+003,3.186226e+001
1.898035e+003,3.352346e+001
1.899000e+003,3.558060e+001
1.899964e+003,3.435260e+001
1.900928e+003,2.889549e+001
1.901892e+003,2.633615e+001
1.902856e+003,2.941289e+001
1.903821e+003,3.307111e+001
1.904785e+003,3.525962e+001
1.905749e+003,3.588425e+001
1.906713e+003,3.504538e+001
1.907678e+003,3.368694e+001
1.908642e+003,3.241049e+001
1.909606e+003,3.136744e+001
1.910570e+003,3.107032e+001
1.911535e+003,3.177712e+001
1.912499e+003,3.252514e+001
1.913463e+003,3.198062e+001
1.914427e+003,3.056264e+001
1.915391e+003,3.041953e+001
1.916356e+003,3.173205e+001
1.917320e+003,3.185294e+001
1.918284e+003,3.072854e+001
1.919248e+003,3.049545e+001
1.920213e+003,3.122179e+001
1.921177e+003,3.129842e+001
1.922141e+003,2.986896e+001
1.923105e+003,2.857129e+001
1.924070e+003,2.941829e+001
1.925034e+003,3.140092e+001
1.925998e+003,3.176180e+001
1.926962e+003,3.047414e+001
1.927927e+003,2.896298e+001
1.928891e+003,2.654039e+001
1.929855e+003,2.560683e+001
1.930819e+003,2.812122e+001
1.931783e+003,2.984962e+001
1.932748e+003,2.779301e+001
1.933712e+003,2.543433e+001
1.934676e+003,2.647613e+001
1.935640e+003,2.925390e+001
1.936605e+003,3.034254e+001
1.937569e+003,2.921830e+001
1.938533e+003,2.758498e+001
1.939497e+003,2.670185e+001
1.940462e+003,2.683980e+001
1.941426e+003,2.775059e+001
1.942390e+003,2.893166e+001
1.943354e+003,3.024866e+001
1.944318e+003,3.108846e+001
1.945283e+003,3.014931e+001
1.946247e+003,2.815222e+001
1.947211e+003,2.749889e+001
1.948175e+003,2.873015e+001
1.949140e+003,2.964685e+001
1.950104e+003,2.850858e+001
1.951068e+003,2.719288e+001
1.952032e+003,2.859986e+001
1.952997e+003,3.122950e+001
1.953961e+003,2.979948e+001
1.954925e+003,2.361635e+001
1.955889e+003,2.066473e+001
1.956854e+003,2.271558e+001
1.957818e+003,2.499490e+001
1.958782e+003,2.898400e+001
1.959746e+003,3.132811e+001
1.960710e+003,2.845719e+001
1.961675e+003,2.495947e+001
1.962639e+003,2.528328e+001
1.963603e+003,2.725659e+001
1.964567e+003,2.699939e+001
1.965532e+003,2.459962e+001
1.966496e+003,2.260904e+001
1.967460e+003,2.175635e+001
1.968424e+003,2.136321e+001
1.969389e+003,2.107593e+001
1.970353e+003,2.109242e+001
1.971317e+003,2.171307e+001
1.972281e+003,2.275192e+001
1.973245e+003,2.441264e+001
1.974210e+003,2.627380e+001
1.975174e+003,2.695357e+001
1.976138e+003,2.648315e+001
1.977102e+003,2.612627e+001
1.978067e+003,2.636456e+001
1.979031e+003,2.739548e+001
1.979995e+003,2.964282e+001
1.980959e+003,3.173565e+001
1.981924e+003,3.090801e+001
1.982888e+003,2.787282e+001
1.983852e+003,2.596727e+001
1.984816e+003,2.498990e+001
1.985781e+003,2.530136e+001
1.986745e+003,2.772069e+001
1.987709e+003,2.909908e+001
1.988673e+003,2.744824e+001
1.989637e+003,2.566246e+001
1.990602e+003,2.583594e+001
1.991566e+003,2.693562e+001
1.992530e+003,2.832837e+001
1.993494e+003,3.012835e+001
1.994459e+003,3.008465e+001
1.995423e+003,2.682338e+001
1.996387e+003,2.542814e+001
1.997351e+003,2.815884e+001
1.998316e+003,2.898282e+001
1.999280e+003,2.511570e+001
2.000244e+003,2.216199e+001
2.001208e+003,2.371019e+001
2.002172e+003,2.658934e+001
2.003137e+003,2.734039e+001
2.004101e+003,2.664070e+001
2.005065e+003,2.700665e+001
2.006029e+003,2.871746e+001
2.006994e+003,2.955828e+001
2.007958e+003,2.819233e+001
2.008922e+003,2.665495e+001
2.009886e+003,2.716141e+001
2.010851e+003,2.845462e+001
2.011815e+003,2.892149e+001
2.012779e+003,2.883271e+001
2.013743e+003,2.891972e+001
2.014708e+003,2.886748e+001
2.015672e+003,2.761230e+001
2.016636e+003,2.544392e+001
2.017600e+003,2.418274e+001
2.018564e+003,2.446501e+001
2.019529e+003,2.488830e+001
2.020493e+003,2.434499e+001
2.021457e+003,2.382389e+001
2.022421e+003,2.508334e+001
2.023386e+003,2.738003e+001
2.024350e+003,2.717863e+001
2.025314e+003,2.464552e+001
2.026278e+003,2.459184e+001
2.027243e+003,2.796684e+001
2.028207e+003,3.030956e+001
2.029171e+003,2.980843e+001
2.030135e+003,2.878784e+001
2.031099e+003,2.891954e+001
2.032064e+003,2.918438e+001
2.033028e+003,2.778962e+001
2.033992e+003,2.499021e+001
2.034956e+003,2.431131e+001
2.035921e+003,2.753024e+001
2.036885e+003,2.905296e+001
2.037849e+003,2.704438e+001
2.038813e+003,2.693639e+001
2.039778e+003,3.011363e+001
2.040742e+003,3.163311e+001
2.041706e+003,2.977999e+001
2.042670e+003,2.711877e+001
2.043635e+003,2.461333e+001
2.044599e+003,2.293664e+001
2.045563e+003,2.390925e+001
2.046527e+003,2.708556e+001
2.047491e+003,2.811001e+001
2.048456e+003,2.543607e+001
2.049420e+003,2.452715e+001
2.050384e+003,2.864027e+001
2.051348e+003,3.143462e+001
2.052313e+003,2.911987e+001
2.053277e+003,2.606189e+001
2.054241e+003,2.593690e+001
2.055205e+003,2.731573e+001
2.056170e+003,2.756322e+001
2.057134e+003,2.646789e+001
2.058098e+003,2.550611e+001
2.059062e+003,2.536296e+001
2.060027e+003,2.527255e+001
2.060991e+003,2.453891e+001
2.061955e+003,2.428709e+001
2.062919e+003,2.609949e+001
2.063884e+003,2.816918e+001
2.064848e+003,2.849078e+001
2.065812e+003,2.814294e+001
2.066776e+003,2.833907e+001
2.067740e+003,2.874030e+001
2.068705e+003,2.895544e+001
2.069669e+003,2.890314e+001
2.070633e+003,2.830922e+001
2.071597e+003,2.700230e+001
2.072562e+003,2.522580e+001
2.073526e+003,2.351163e+001
2.074490e+003,2.260241e+001
2.075454e+003,2.311311e+001
2.076418e+003,2.419860e+001
2.077383e+003,2.336138e+001
2.078347e+003,2.057410e+001
2.079311e+003,1.928543e+001
2.080275e+003,2.068768e+001
2.081240e+003,2.331811e+001
2.082204e+003,2.626007e+001
2.083168e+003,2.772078e+001
2.084132e+003,2.638078e+001
2.085096e+003,2.382291e+001
2.086061e+003,2.234507e+001
2.087025e+003,2.206036e+001
2.087989e+003,2.255886e+001
2.088953e+003,2.389129e+001
2.089918e+003,2.345702e+001
2.090882e+003,2.043793e+001
2.091846e+003,1.920828e+001
2.092810e+003,2.103571e+001
2.093775e+003,2.222112e+001
2.094739e+003,2.093909e+001
2.095703e+003,1.948402e+001
2.096667e+003,1.952673e+001
2.097632e+003,2.027591e+001
2.098596e+003,2.112205e+001
2.099560e+003,2.209325e+001
2.100524e+003,2.172323e+001
2.101489e+003,1.888232e+001
2.102453e+003,1.757519e+001
2.103417e+003,1.901318e+001
2.104381e+003,2.063547e+001
2.105345e+003,2.399476e+001
2.106310e+003,2.544915e+001
2.107274e+003,2.130640e+001
2.108238e+003,1.765657e+001
2.109202e+003,2.002184e+001
2.110167e+003,2.418991e+001
2.111131e+003,2.363303e+001
2.112095e+003,1.928056e+001
2.113059e+003,1.710616e+001
2.114023e+003,1.891132e+001
2.114988e+003,2.095855e+001
2.115952e+003,2.168457e+001
2.116916e+003,2.130441e+001
2.117880e+003,1.913635e+001
2.118845e+003,1.739629e+001
2.119809e+003,1.895544e+001
2.120773e+003,2.110408e+001
2.121737e+003,1.988951e+001
2.122702e+003,1.715244e+001
2.123666e+003,1.651395e+001
2.124630e+003,1.785625e+001
2.125594e+003,1.933577e+001
2.126559e+003,2.066565e+001
2.127523e+003,2.086833e+001
2.128487e+003,1.912061e+001
2.129451e+003,1.742312e+001
2.130416e+003,1.594849e+001
2.131380e+003,1.520787e+001
2.132344e+003,1.620000e+001
2.133308e+003,1.782930e+001
2.134272e+003,1.878697e+001
2.135237e+003,1.901791e+001
2.136201e+003,1.925656e+001
2.137165e+003,1.966039e+001
2.138129e+003,1.948054e+001
2.139094e+003,1.856725e+001
2.140058e+003,1.827330e+001
2.141022e+003,1.923772e+001
2.141986e+003,2.032399e+001
2.142950e+003,2.106305e+001
2.143915e+003,2.159789e+001
2.144879e+003,2.255913e+001
2.145843e+003,2.269038e+001
2.146807e+003,1.928751e+001
2.147772e+003,1.445175e+001
2.148736e+003,1.277956e+001
2.149700e+003,1.432615e+001
2.150664e+003,1.565882e+001
2.151629e+003,1.540368e+001
2.152593e+003,1.494420e+001
2.153557e+003,1.567693e+001
2.154521e+003,1.646626e+001
2.155486e+003,1.503106e+001
2.156450e+003,1.285771e+001
2.157414e+003,1.241954e+001
2.158378e+003,1.335016e+001
2.159343e+003,1.539475e+001
2.160307e+003,1.770217e+001
2.161271e+003,1.787045e+001
2.162235e+003,1.578867e+001
2.163199e+003,1.417694e+001
2.164164e+003,1.429082e+001
2.165128e+003,1.405943e+001
2.166092e+003,1.139977e+001
2.167056e+003,9.084480e+000
2.168021e+003,1.151317e+001
2.168985e+003,1.570213e+001
2.169949e+003,1.706529e+001
2.170913e+003,1.625043e+001
2.171877e+003,1.411301e+001
2.172842e+003,1.148744e+001
2.173806e+003,9.536522e+000
2.174770e+003,8.565208e+000
2.175734e+003,9.156487e+000
2.176699e+003,1.144132e+001
2.177663e+003,1.430558e+001
2.178627e+003,1.712541e+001
2.179591e+003,1.886121e+001
2.180556e+003,1.670975e+001
2.181520e+003,1.252640e+001
2.182484e+003,1.151658e+001
2.183448e+003,1.242565e+001
2.184413e+003,1.026937e+001
2.185377e+003,6.036995e+000
2.186341e+003,6.176224e+000
2.187305e+003,1.084927e+001
2.188270e+003,1.281908e+001
2.189234e+003,9.373016e+000
2.190198e+003,5.556671e+000
2.191162e+003,5.118996e+000
2.192126e+003,5.763969e+000
2.193091e+003,4.772675e+000
2.194055e+003,3.190208e+000
2.195019e+003,3.191681e+000
2.195983e+003,4.443108e+000
2.196948e+003,5.302933e+000
2.197912e+003,5.796021e+000
2.198876e+003,6.981270e+000
2.199840e+003,8.692284e+000
2.200804e+003,9.374245e+000
2.201769e+003,8.586937e+000
2.202733e+003,8.472008e+000
2.203697e+003,1.082547e+001
2.204661e+003,1.302080e+001
2.205626e+003,1.093410e+001
2.206590e+003,7.052994e+000
2.207554e+003,6.353050e+000
2.208518e+003,7.353073e+000
2.209483e+003,6.971260e+000
2.210447e+003,5.663933e+000
2.211411e+003,4.991997e+000
2.212375e+003,5.065559e+000
2.213340e+003,5.241852e+000
2.214304e+003,5.290848e+000
2.215268e+003,5.032845e+000
2.216232e+003,4.138939e+000
2.217197e+003,2.943954e+000
2.218161e+003,2.163223e+000
2.219125e+003,1.783882e+000
2.220089e+003,1.601089e+000
2.221053e+003,2.064911e+000
2.222018e+003,3.898071e+000
2.222982e+003,5.830917e+000
2.223946e+003,5.719894e+000
2.224910e+003,4.096008e+000
2.225875e+003,2.141388e+000
2.226839e+003,3.656616e-001
2.227803e+003,0.000000e+000
2.228767e+003,1.495979e+000
2.229731e+003,3.268776e+000
2.230696e+003,4.276497e+000
2.231660e+003,4.343864e+000
2.232624e+003,2.931763e+000
2.233588e+003,1.277000e+000
2.234553e+003,7.012863e-001
2.235517e+003,9.585266e-001
2.236481e+003,1.695412e+000
2.237445e+003,2.542107e+000
2.238410e+003,3.791763e+000
2.239374e+003,5.384331e+000
2.240338e+003,5.944756e+000
2.241302e+003,5.030762e+000
2.242267e+003,4.083519e+000
2.243231e+003,4.025635e+000
2.244195e+003,4.760788e+000
2.245159e+003,6.851921e+000
2.246124e+003,8.664680e+000
2.247088e+003,7.795822e+000
2.248052e+003,5.863976e+000
2.249016e+003,5.638206e+000
2.249980e+003,6.328590e+000
2.250945e+003,5.861458e+000
2.251909e+003,4.520744e+000
2.252873e+003,3.582741e+000
2.253837e+003,3.164963e+000
2.254802e+003,2.764046e+000
2.255766e+003,2.343254e+000
2.256730e+003,2.454926e+000
2.257694e+003,3.544044e+000
2.258658e+003,4.720581e+000
2.259623e+003,5.739105e+000
2.260587e+003,6.144669e+000
2.261551e+003,4.854378e+000
2.262515e+003,3.357140e+000
2.263480e+003,3.969170e+000
2.264444e+003,5.792213e+000
2.265408e+003,6.425011e+000
2.266372e+003,5.572975e+000
2.267337e+003,4.564209e+000
2.268301e+003,3.902138e+000
2.269265e+003,4.174278e+000
2.270229e+003,7.377037e+000
2.271194e+003,9.974106e+000
2.272158e+003,7.673904e+000
2.273122e+003,5.288521e+000
2.274086e+003,6.633667e+000
2.275051e+003,8.710709e+000
2.276015e+003,9.752480e+000
2.276979e+003,1.003286e+001
2.277943e+003,9.377388e+000
2.278907e+003,8.069603e+000
2.279872e+003,6.734543e+000
2.280836e+003,5.297874e+000
2.281800e+003,4.601883e+000
2.282764e+003,5.558479e+000
2.283729e+003,6.402435e+000
2.284693e+003,7.385193e+000
2.285657e+003,8.096733e+000
2.286621e+003,6.251328e+000
2.287585e+003,5.116821e+000
2.288550e+003,8.513939e+000
2.289514e+003,1.219367e+001
2.290478e+003,1.179871e+001
2.291442e+003,9.585396e+000
2.292407e+003,8.790985e+000
2.293371e+003,9.133247e+000
2.294335e+003,1.039215e+001
2.295299e+003,1.287786e+001
2.296264e+003,1.433095e+001
2.297228e+003,1.454735e+001
2.298192e+003,1.487150e+001
2.299156e+003,1.620274e+001
2.300121e+003,1.659099e+001
2.301085e+003,1.409071e+001
2.302049e+003,1.210986e+001
2.303013e+003,1.295909e+001
2.303978e+003,1.556957e+001
2.304942e+003,1.912160e+001
2.305906e+003,2.223229e+001
2.306870e+003,2.163756e+001
2.307834e+003,1.797484e+001
2.308799e+003,1.765802e+001
2.309763e+003,2.129727e+001
2.310727e+003,2.274458e+001
2.311691e+003,2.135702e+001
2.312656e+003,2.030672e+001
2.313620e+003,2.019195e+001
2.314584e+003,2.024265e+001
2.315548e+003,2.020749e+001
2.316512e+003,2.004179e+001
2.317477e+003,1.992633e+001
2.318441e+003,2.112754e+001
2.319405e+003,2.491854e+001
2.320369e+003,2.969571e+001
2.321334e+003,3.219518e+001
2.322298e+003,3.254488e+001
2.323262e+003,3.200360e+001
2.324226e+003,3.185071e+001
2.325191e+003,3.490517e+001
2.326155e+003,3.999570e+001
2.327119e+003,4.332637e+001
2.328083e+003,4.399464e+001
2.329048e+003,4.280172e+001
2.330012e+003,4.065220e+001
2.330976e+003,3.851180e+001
2.331940e+003,3.617731e+001
2.332905e+003,3.536256e+001
2.333869e+003,4.061697e+001
2.334833e+003,4.627557e+001
2.335797e+003,4.558195e+001
2.336761e+003,4.309050e+001
2.337726e+003,4.232898e+001
2.338690e+003,4.324654e+001
2.339654e+003,4.729297e+001
2.340618e+003,5.276550e+001
2.341583e+003,5.582801e+001
2.342547e+003,5.650350e+001
2.343511e+003,5.730707e+001
2.344475e+003,5.863604e+001
2.345439e+003,6.035015e+001
2.346404e+003,6.301833e+001
2.347368e+003,6.467991e+001
2.348332e+003,6.437350e+001
2.349296e+003,6.455575e+001
2.350261e+003,6.671867e+001
2.351225e+003,6.925037e+001
2.352189e+003,6.987962e+001
2.353153e+003,7.044785e+001
2.354118e+003,7.369200e+001
2.355082e+003,7.822181e+001
2.356046e+003,8.132005e+001
2.357010e+003,8.355301e+001
2.357975e+003,8.649223e+001
2.358939e+003,9.057494e+001
2.359903e+003,9.267696e+001
2.360867e+003,9.064161e+001
2.361832e+003,9.109498e+001
2.362796e+003,9.690206e+001
2.363760e+003,1.003376e+002
2.364724e+003,9.826443e+001
2.365688e+003,9.824367e+001
2.366653e+003,1.043772e+002
2.367617e+003,1.116157e+002
2.368581e+003,1.151002e+002
2.369545e+003,1.166987e+002
2.370510e+003,1.201162e+002
2.371474e+003,1.247566e+002
2.372438e+003,1.269484e+002
2.373402e+003,1.271871e+002
2.374366e+003,1.285740e+002
2.375331e+003,1.310075e+002
2.376295e+003,1.328654e+002
2.377259e+003,1.341304e+002
2.378223e+003,1.361316e+002
2.379188e+003,1.389918e+002
2.380152e+003,1.412655e+002
2.381116e+003,1.423247e+002
2.382080e+003,1.432615e+002
2.383045e+003,1.450451e+002
2.384009e+003,1.461102e+002
2.384973e+003,1.440411e+002
2.385937e+003,1.420818e+002
2.386902e+003,1.436990e+002
2.387866e+003,1.472731e+002
2.388830e+003,1.509929e+002
2.389794e+003,1.539564e+002
2.390759e+003,1.556210e+002
2.391723e+003,1.561427e+002
2.392687e+003,1.561593e+002
2.393651e+003,1.562738e+002
2.394615e+003,1.569162e+002
2.395580e+003,1.580836e+002
2.396544e+003,1.582610e+002
2.397508e+003,1.553645e+002
2.398472e+003,1.543342e+002
2.399437e+003,1.579346e+002
2.400401e+003,1.609202e+002
2.401365e+003,1.609018e+002
2.402329e+003,1.608324e+002
2.403293e+003,1.625949e+002
2.404258e+003,1.646145e+002
2.405222e+003,1.654673e+002
2.406186e+003,1.659006e+002
2.407150e+003,1.669817e+002
2.408115e+003,1.683319e+002
2.409079e+003,1.681024e+002
2.410043e+003,1.663972e+002
2.411007e+003,1.672885e+002
2.411972e+003,1.706697e+002
2.412936e+003,1.729908e+002
2.413900e+003,1.735465e+002
2.414864e+003,1.730884e+002
2.415829e+003,1.723819e+002
2.416793e+003,1.723165e+002
2.417757e+003,1.730699e+002
2.418721e+003,1.744406e+002
2.419686e+003,1.767363e+002
2.420650e+003,1.784789e+002
2.421614e+003,1.765687e+002
2.422578e+003,1.747570e+002
2.423542e+003,1.778100e+002
2.424507e+003,1.819105e+002
2.425471e+003,1.838517e+002
2.426435e+003,1.842717e+002
2.427399e+003,1.829382e+002
2.428364e+003,1.805612e+002
2.429328e+003,1.792729e+002
2.430292e+003,1.795010e+002
2.431256e+003,1.796950e+002
2.432220e+003,1.794177e+002
2.433185e+003,1.795286e+002
2.434149e+003,1.798883e+002
2.435113e+003,1.800761e+002
2.436077e+003,1.808861e+002
2.437042e+003,1.804952e+002
2.438006e+003,1.782628e+002
2.438970e+003,1.752536e+002
2.439934e+003,1.714500e+002
2.440899e+003,1.686060e+002
2.441863e+003,1.685390e+002
2.442827e+003,1.693144e+002
2.443791e+003,1.675942e+002
2.444756e+003,1.643555e+002
2.445720e+003,1.635676e+002
2.446684e+003,1.644470e+002
2.447648e+003,1.628005e+002
2.448613e+003,1.593505e+002
2.449577e+003,1.563431e+002
2.450541e+003,1.539396e+002
2.451505e+003,1.518586e+002
2.452469e+003,1.501549e+002
2.453434e+003,1.487002e+002
2.454398e+003,1.471536e+002
2.455362e+003,1.465899e+002
2.456326e+003,1.486308e+002
2.457291e+003,1.501991e+002
2.458255e+003,1.474513e+002
2.459219e+003,1.449740e+002
2.460183e+003,1.452750e+002
2.461147e+003,1.451449e+002
2.462112e+003,1.433541e+002
2.463076e+003,1.418747e+002
2.464040e+003,1.420607e+002
2.465004e+003,1.419252e+002
2.465969e+003,1.394791e+002
2.466933e+003,1.365242e+002
2.467897e+003,1.354608e+002
2.468861e+003,1.354973e+002
2.469826e+003,1.346879e+002
2.470790e+003,1.331583e+002
2.471754e+003,1.311447e+002
2.472718e+003,1.288219e+002
2.473683e+003,1.286049e+002
2.474647e+003,1.300470e+002
2.475611e+003,1.307580e+002
2.476575e+003,1.306260e+002
2.477540e+003,1.298968e+002
2.478504e+003,1.284777e+002
2.479468e+003,1.266385e+002
2.480432e+003,1.246585e+002
2.481396e+003,1.230001e+002
2.482361e+003,1.225803e+002
2.483325e+003,1.226245e+002
2.484289e+003,1.213161e+002
2.485253e+003,1.196556e+002
2.486218e+003,1.192612e+002
2.487182e+003,1.189851e+002
2.488146e+003,1.177965e+002
2.489110e+003,1.162768e+002
2.490074e+003,1.144826e+002
2.491039e+003,1.133932e+002
2.492003e+003,1.155155e+002
2.492967e+003,1.200262e+002
2.493931e+003,1.207701e+002
2.494896e+003,1.169193e+002
2.495860e+003,1.154785e+002
2.496824e+003,1.175203e+002
2.497788e+003,1.186023e+002
2.498753e+003,1.178899e+002
2.499717e+003,1.160113e+002
2.500681e+003,1.131526e+002
2.501645e+003,1.125781e+002
2.502610e+003,1.156381e+002
2.503574e+003,1.180774e+002
2.504538e+003,1.167774e+002
2.505502e+003,1.150031e+002
2.506467e+003,1.164981e+002
2.507431e+003,1.182939e+002
2.508395e+003,1.159884e+002
2.509359e+003,1.128141e+002
2.510323e+003,1.129458e+002
2.511288e+003,1.143674e+002
2.512252e+003,1.141062e+002
2.513216e+003,1.132565e+002
2.514180e+003,1.145311e+002
2.515145e+003,1.170173e+002
2.516109e+003,1.175447e+002
2.517073e+003,1.158139e+002
2.518037e+003,1.135624e+002
2.519001e+003,1.102427e+002
2.519966e+003,1.090127e+002
2.520930e+003,1.105386e+002
2.521894e+003,1.124108e+002
2.522858e+003,1.147040e+002
2.523823e+003,1.162658e+002
2.524787e+003,1.167470e+002
2.525751e+003,1.164090e+002
2.526715e+003,1.154120e+002
2.527680e+003,1.140077e+002
2.528644e+003,1.124597e+002
2.529608e+003,1.118663e+002
2.530572e+003,1.133121e+002
2.531537e+003,1.151494e+002
2.532501e+003,1.160846e+002
2.533465e+003,1.161024e+002
2.534429e+003,1.139350e+002
2.535394e+003,1.121592e+002
2.536358e+003,1.141932e+002
2.537322e+003,1.175593e+002
2.538286e+003,1.194779e+002
2.539250e+003,1.197324e+002
2.540215e+003,1.181640e+002
2.541179e+003,1.149285e+002
2.542143e+003,1.118313e+002
2.543107e+003,1.093539e+002
2.544072e+003,1.087249e+002
2.545036e+003,1.098843e+002
2.546000e+003,1.106000e+002
2.546964e+003,1.105984e+002
2.547928e+003,1.105173e+002
2.548893e+003,1.104688e+002
2.549857e+003,1.107230e+002
2.550821e+003,1.114641e+002
2.551785e+003,1.114180e+002
2.552750e+003,1.097804e+002
2.553714e+003,1.074247e+002
2.554678e+003,1.049910e+002
2.555642e+003,1.033403e+002
2.556607e+003,1.032480e+002
2.557571e+003,1.032918e+002
2.558535e+003,1.029950e+002
2.559499e+003,1.018998e+002
2.560464e+003,9.911848e+001
2.561428e+003,9.685778e+001
2.562392e+003,9.772778e+001
2.563356e+003,9.945734e+001
2.564321e+003,9.806516e+001
2.565285e+003,9.477559e+001
2.566249e+003,9.303143e+001
2.567213e+003,9.245833e+001
2.568177e+003,9.286185e+001
2.569142e+003,9.440807e+001
2.570106e+003,9.518176e+001
2.571070e+003,9.540203e+001
2.572034e+003,9.461617e+001
2.572999e+003,9.303642e+001
2.573963e+003,9.147829e+001
2.574927e+003,8.999679e+001
2.575891e+003,8.938882e+001
2.576855e+003,8.976905e+001
2.577820e+003,8.962296e+001
2.578784e+003,8.879763e+001
2.579748e+003,8.809696e+001
2.580712e+003,8.792010e+001
2.581677e+003,8.775687e+001
2.582641e+003,8.643545e+001
2.583605e+003,8.497774e+001
2.584569e+003,8.488779e+001
2.585534e+003,8.428424e+001
2.586498e+003,8.155375e+001
2.587462e+003,7.889500e+001
2.588426e+003,7.830761e+001
2.589391e+003,7.909006e+001
2.590355e+003,8.060431e+001
2.591319e+003,8.223363e+001
2.592283e+003,8.165619e+001
2.593248e+003,7.950624e+001
2.594212e+003,7.709076e+001
2.595176e+003,7.480864e+001
2.596140e+003,7.349876e+001
2.597104e+003,7.295691e+001
2.598069e+003,7.266610e+001
2.599033e+003,7.251672e+001
2.599997e+003,7.303718e+001
2.600961e+003,7.422340e+001
2.601926e+003,7.401202e+001
2.602890e+003,7.114834e+001
2.603854e+003,7.060731e+001
2.604818e+003,7.447781e+001
2.605782e+003,7.550211e+001
2.606747e+003,7.329116e+001
2.607711e+003,6.968848e+001
2.608675e+003,6.465485e+001
2.609639e+003,6.201015e+001
2.610604e+003,6.318608e+001
2.611568e+003,6.547392e+001
2.612532e+003,6.712454e+001
2.613496e+003,6.762241e+001
2.614461e+003,6.612862e+001
2.615425e+003,6.416380e+001
2.616389e+003,6.380722e+001
2.617353e+003,6.336864e+001
2.618318e+003,6.114429e+001
2.619282e+003,5.903770e+001
2.620246e+003,5.869436e+001
2.621210e+003,5.992959e+001
2.622175e+003,6.271581e+001
2.623139e+003,6.486311e+001
2.624103e+003,6.363971e+001
2.625067e+003,6.044891e+001
2.626031e+003,5.952239e+001
2.626996e+003,6.131070e+001
2.627960e+003,6.321600e+001
2.628924e+003,6.458314e+001
2.629888e+003,6.591712e+001
2.630853e+003,6.646145e+001
2.631817e+003,6.337263e+001
2.632781e+003,5.909612e+001
2.633745e+003,5.766691e+001
2.634709e+003,5.837281e+001
2.635674e+003,6.026309e+001
2.636638e+003,6.263107e+001
2.637602e+003,6.137947e+001
2.638566e+003,5.528767e+001
2.639531e+003,5.229003e+001
2.640495e+003,5.411825e+001
2.641459e+003,5.525723e+001
2.642423e+003,5.547512e+001
2.643388e+003,5.672514e+001
2.644352e+003,5.937960e+001
2.645316e+003,6.099653e+001
2.646280e+003,6.063899e+001
2.647245e+003,5.894497e+001
2.648209e+003,5.695915e+001
2.649173e+003,5.613475e+001
2.650137e+003,5.708163e+001
2.651102e+003,5.812205e+001
2.652066e+003,5.718201e+001
2.653030e+003,5.496556e+001
2.653994e+003,5.233757e+001
2.654958e+003,5.089915e+001
2.655923e+003,5.196686e+001
2.656887e+003,5.424889e+001
2.657851e+003,5.687148e+001
2.658815e+003,5.821305e+001
2.659780e+003,5.688445e+001
2.660744e+003,5.444324e+001
2.661708e+003,5.366101e+001
2.662672e+003,5.387859e+001
2.663636e+003,5.210451e+001
2.664601e+003,4.935745e+001
2.665565e+003,4.953522e+001
2.666529e+003,5.100098e+001
2.667493e+003,4.984393e+001
2.668458e+003,4.745412e+001
2.669422e+003,4.651367e+001
2.670386e+003,4.660728e+001
2.671350e+003,4.742565e+001
2.672315e+003,4.922815e+001
2.673279e+003,4.985287e+001
2.674243e+003,4.829359e+001
2.675207e+003,4.664826e+001
2.676172e+003,4.487167e+001
2.677136e+003,4.451988e+001
2.678100e+003,4.599348e+001
2.679064e+003,4.560647e+001
2.680029e+003,4.263436e+001
2.680993e+003,4.016391e+001
2.681957e+003,3.946626e+001
2.682921e+003,4.032056e+001
2.683885e+003,4.195240e+001
2.684850e+003,4.222151e+001
2.685814e+003,4.070090e+001
2.686778e+003,3.968948e+001
2.687742e+003,3.897488e+001
2.688707e+003,3.959764e+001
2.689671e+003,4.231604e+001
2.690635e+003,4.370572e+001
2.691599e+003,4.367899e+001
2.692563e+003,4.226139e+001
2.693528e+003,3.924696e+001
2.694492e+003,3.691794e+001
2.695456e+003,3.679146e+001
2.696420e+003,3.733681e+001
2.697385e+003,3.724356e+001
2.698349e+003,3.612615e+001
2.699313e+003,3.242089e+001
2.700277e+003,2.934873e+001
2.701242e+003,2.967560e+001
2.702206e+003,3.079323e+001
2.703170e+003,3.120457e+001
2.704134e+003,3.160839e+001
2.705099e+003,3.364452e+001
2.706063e+003,3.563784e+001
2.707027e+003,3.533714e+001
2.707991e+003,3.361887e+001
2.708956e+003,3.199448e+001
2.709920e+003,3.016747e+001
2.710884e+003,2.840677e+001
2.711848e+003,2.729047e+001
2.712813e+003,2.791064e+001
2.713777e+003,2.950777e+001
2.714741e+003,2.934189e+001
2.715705e+003,2.777997e+001
2.716669e+003,2.800227e+001
2.717634e+003,2.971692e+001
2.718598e+003,3.076310e+001
2.719562e+003,3.124048e+001
2.720526e+003,2.991514e+001
2.721490e+003,2.530822e+001
2.722455e+003,2.396484e+001
2.723419e+003,2.688841e+001
2.724383e+003,2.804756e+001
2.725347e+003,2.752924e+001
2.726312e+003,2.637723e+001
2.727276e+003,2.457884e+001
2.728240e+003,2.433085e+001
2.729204e+003,2.592738e+001
2.730169e+003,2.509590e+001
2.731133e+003,2.034343e+001
2.732097e+003,1.769765e+001
2.733061e+003,1.980700e+001
2.734026e+003,2.052381e+001
2.734990e+003,2.010609e+001
2.735954e+003,2.153252e+001
2.736918e+003,2.441812e+001
2.737883e+003,2.484309e+001
2.738847e+003,2.191892e+001
2.739811e+003,2.110284e+001
2.740775e+003,2.373009e+001
2.741740e+003,2.364365e+001
2.742704e+003,1.872794e+001
2.743668e+003,1.472919e+001
2.744632e+003,1.425179e+001
2.745596e+003,1.462666e+001
2.746561e+003,1.366481e+001
2.747525e+003,1.301699e+001
2.748489e+003,1.538709e+001
2.749453e+003,1.690079e+001
2.750417e+003,1.652213e+001
2.751382e+003,1.681957e+001
2.752346e+003,1.852290e+001
2.753310e+003,1.939801e+001
2.754274e+003,1.791374e+001
2.755239e+003,1.585392e+001
2.756203e+003,1.489851e+001
2.757167e+003,1.506351e+001
2.758131e+003,1.782285e+001
2.759096e+003,1.930222e+001
2.760060e+003,1.578648e+001
2.761024e+003,1.235506e+001
2.761988e+003,1.195397e+001
2.762953e+003,1.268601e+001
2.763917e+003,1.367920e+001
2.764881e+003,1.449257e+001
2.765845e+003,1.461060e+001
2.766810e+003,1.478728e+001
2.767774e+003,1.675829e+001
2.768738e+003,1.907650e+001
2.769702e+003,1.851006e+001
2.770667e+003,1.737614e+001
2.771631e+003,1.752586e+001
2.772595e+003,1.738670e+001
2.773559e+003,1.693338e+001
2.774523e+003,1.652625e+001
2.775488e+003,1.629353e+001
2.776452e+003,1.685799e+001
2.777416e+003,1.721402e+001
2.778380e+003,1.597939e+001
2.779344e+003,1.594751e+001
2.780309e+003,1.742188e+001
2.781273e+003,1.419919e+001
2.782237e+003,1.055816e+001
2.783201e+003,1.281750e+001
2.784166e+003,1.617076e+001
2.785130e+003,1.866412e+001
2.786094e+003,1.970390e+001
2.787058e+003,1.695924e+001
2.788023e+003,1.285964e+001
2.788987e+003,1.084969e+001
2.789951e+003,1.045860e+001
2.790915e+003,1.260403e+001
2.791880e+003,1.648200e+001
2.792844e+003,1.538187e+001
2.793808e+003,1.149882e+001
2.794772e+003,1.066492e+001
2.795737e+003,1.126936e+001
2.796701e+003,1.274915e+001
2.797665e+003,1.426398e+001
2.798629e+003,1.264659e+001
2.799594e+003,9.678787e+000
2.800558e+003,1.056241e+001
2.801522e+003,1.433163e+001
2.802486e+003,1.603532e+001
2.803450e+003,1.500163e+001
2.804415e+003,1.414113e+001
2.805379e+003,1.359928e+001
2.806343e+003,1.332384e+001
2.807307e+003,1.427980e+001
2.808271e+003,1.309620e+001
2.809236e+003,9.505684e+000
2.810200e+003,9.154449e+000
2.811164e+003,1.240618e+001
2.812128e+003,1.365285e+001
2.813093e+003,1.245213e+001
2.814057e+003,1.392735e+001
2.815021e+003,1.665759e+001
2.815985e+003,1.725871e+001
2.816950e+003,1.750173e+001
2.817914e+003,1.585667e+001
2.818878e+003,1.236553e+001
2.819842e+003,1.092226e+001
2.820807e+003,1.170430e+001
2.821771e+003,1.162739e+001
2.822735e+003,9.872536e+000
2.823699e+003,8.921692e+000
2.824664e+003,1.007547e+001
2.825628e+003,1.069376e+001
2.826592e+003,1.069878e+001
2.827556e+003,1.139886e+001
2.828521e+003,1.190154e+001
2.829485e+003,1.251627e+001
2.830449e+003,1.365794e+001
2.831413e+003,1.375732e+001
2.832377e+003,1.244009e+001
2.833342e+003,1.062167e+001
2.834306e+003,9.250504e+000
2.835270e+003,1.008397e+001
2.836234e+003,1.347388e+001
2.837198e+003,1.446622e+001
2.838163e+003,1.183855e+001
2.839127e+003,1.080559e+001
2.840091e+003,1.144894e+001
2.841055e+003,1.230828e+001
2.842020e+003,1.281272e+001
2.842984e+003,1.246789e+001
2.843948e+003,1.154510e+001
2.844912e+003,1.042447e+001
2.845877e+003,9.405975e+000
2.846841e+003,9.041100e+000
2.847805e+003,9.463669e+000
2.848769e+003,9.838326e+000
2.849734e+003,9.879066e+000
2.850698e+003,9.823051e+000
2.851662e+003,9.678276e+000
2.852626e+003,9.031647e+000
2.853591e+003,8.249138e+000
2.854555e+003,8.015785e+000
2.855519e+003,8.168396e+000
2.856483e+003,8.429573e+000
2.857448e+003,8.602715e+000
2.858412e+003,8.733551e+000
2.859376e+003,9.422325e+000
2.860340e+003,8.365349e+000
2.861304e+003,3.387032e+000
2.862269e+003,2.647507e+000
2.863233e+003,6.134453e+000
2.864197e+003,6.511955e+000
2.865161e+003,4.294708e+000
2.866125e+003,3.862305e+000
2.867090e+003,5.140610e+000
2.868054e+003,5.994446e+000
2.869018e+003,5.706734e+000
2.869982e+003,3.788506e+000
2.870947e+003,4.616470e-001
2.871911e+003,2.860336e-001
2.872875e+003,3.513359e+000
2.873839e+003,4.789505e+000
2.874804e+003,4.214973e+000
2.875768e+003,5.419609e+000
2.876732e+003,8.254570e+000
2.877696e+003,8.648651e+000
2.878661e+003,6.692566e+000
2.879625e+003,6.420212e+000
2.880589e+003,8.382385e+000
2.881553e+003,8.803299e+000
2.882518e+003,6.582214e+000
2.883482e+003,5.935829e+000
2.884446e+003,7.266022e+000
2.885410e+003,7.715752e+000
2.886375e+003,7.285538e+000
2.887339e+003,8.662605e+000
2.888303e+003,1.143005e+001
2.889267e+003,1.234149e+001
2.890231e+003,1.133981e+001
2.891196e+003,1.051288e+001
2.892160e+003,1.035039e+001
2.893124e+003,1.051819e+001
2.894088e+003,1.102211e+001
2.895052e+003,1.110907e+001
2.896017e+003,1.070432e+001
2.896981e+003,1.113797e+001
2.897945e+003,1.223602e+001
2.898909e+003,1.251796e+001
2.899874e+003,1.215815e+001
2.900838e+003,1.193628e+001
2.901802e+003,1.222015e+001
2.902766e+003,1.386747e+001
2.903731e+003,1.666730e+001
2.904695e+003,1.777784e+001
2.905659e+003,1.709595e+001
2.906623e+003,1.803151e+001
2.907588e+003,2.040363e+001
2.908552e+003,2.064671e+001
2.909516e+003,1.960477e+001
2.910480e+003,2.071093e+001
2.911445e+003,2.337013e+001
2.912409e+003,2.545045e+001
2.913373e+003,2.684485e+001
2.914337e+003,2.848639e+001
2.915302e+003,3.023050e+001
2.916266e+003,3.099750e+001
2.917230e+003,3.082246e+001
2.918194e+003,2.978589e+001
2.919158e+003,2.830385e+001
2.920123e+003,2.788141e+001
2.921087e+003,2.875242e+001
2.922051e+003,3.231950e+001
2.923015e+003,3.666344e+001
2.923979e+003,3.844923e+001
2.924944e+003,3.802564e+001
2.925908e+003,3.675280e+001
2.926872e+003,3.539532e+001
2.927836e+003,3.629733e+001
2.928801e+003,3.893518e+001
2.929765e+003,4.155714e+001
2.930729e+003,4.371008e+001
2.931693e+003,4.437507e+001
2.932658e+003,4.398748e+001
2.933622e+003,4.249881e+001
2.934586e+003,4.103764e+001
2.935550e+003,4.100121e+001
2.936515e+003,4.220387e+001
2.937479e+003,4.470069e+001
2.938443e+003,4.755578e+001
2.939407e+003,4.836183e+001
2.940372e+003,4.837662e+001
2.941336e+003,5.086090e+001
2.942300e+003,5.352802e+001
2.943264e+003,5.295001e+001
2.944229e+003,5.170509e+001
2.945193e+003,5.273931e+001
2.946157e+003,5.404160e+001
2.947121e+003,5.380632e+001
2.948085e+003,5.303051e+001
2.949050e+003,5.281660e+001
2.950014e+003,5.305811e+001
2.950978e+003,5.359063e+001
2.951942e+003,5.449934e+001
2.952906e+003,5.594015e+001
2.953871e+003,5.770654e+001
2.954835e+003,6.045770e+001
2.955799e+003,6.223559e+001
2.956763e+003,6.194581e+001
2.957728e+003,6.075762e+001
2.958692e+003,5.931540e+001
2.959656e+003,5.855357e+001
2.960620e+003,5.930998e+001
2.961585e+003,6.099964e+001
2.962549e+003,6.406628e+001
2.963513e+003,6.631493e+001
2.964477e+003,6.571259e+001
2.965442e+003,6.554202e+001
2.966406e+003,6.722558e+001
2.967370e+003,6.758929e+001
2.968334e+003,6.552111e+001
2.969299e+003,6.447134e+001
2.970263e+003,6.610405e+001
2.971227e+003,6.871505e+001
2.972191e+003,7.158628e+001
2.973156e+003,7.308750e+001
2.974120e+003,7.128662e+001
2.975084e+003,7.004803e+001
2.976048e+003,6.939268e+001
2.977012e+003,7.156177e+001
2.977977e+003,7.676607e+001
2.978941e+003,7.814458e+001
2.979905e+003,7.480528e+001
2.980869e+003,7.272020e+001
2.981833e+003,7.385902e+001
2.982798e+003,7.600529e+001
2.983762e+003,7.890004e+001
2.984726e+003,8.000919e+001
2.985690e+003,7.858421e+001
2.986655e+003,7.900264e+001
2.987619e+003,8.120494e+001
2.988583e+003,8.246732e+001
2.989547e+003,8.273615e+001
2.990512e+003,8.315907e+001
2.991476e+003,8.386021e+001
2.992440e+003,8.439091e+001
2.993404e+003,8.473313e+001
2.994369e+003,8.544868e+001
2.995333e+003,8.649081e+001
2.996297e+003,8.619160e+001
2.997261e+003,8.486965e+001
2.998226e+003,8.435922e+001
2.999190e+003,8.455476e+001
3.000154e+003,8.531889e+001
3.001118e+003,8.625449e+001
3.002083e+003,8.641515e+001
3.003047e+003,8.657379e+001
3.004011e+003,8.872717e+001
3.004975e+003,9.132914e+001
3.005939e+003,9.023447e+001
3.006904e+003,8.746490e+001
3.007868e+003,8.871023e+001
3.008832e+003,9.170789e+001
3.009796e+003,9.378767e+001
3.010760e+003,9.515737e+001
3.011725e+003,9.594281e+001
3.012689e+003,9.640579e+001
3.013653e+003,9.666659e+001
3.014617e+003,9.687407e+001
3.015582e+003,9.708965e+001
3.016546e+003,9.806157e+001
3.017510e+003,1.017115e+002
3.018474e+003,1.046419e+002
3.019439e+003,1.025860e+002
3.020403e+003,1.003184e+002
3.021367e+003,1.005317e+002
3.022331e+003,1.009627e+002
3.023296e+003,1.008414e+002
3.024260e+003,1.015622e+002
3.025224e+003,1.037348e+002
3.026188e+003,1.056215e+002
3.027153e+003,1.061187e+002
3.028117e+003,1.066094e+002
3.029081e+003,1.084898e+002
3.030045e+003,1.090855e+002
3.031010e+003,1.068616e+002
3.031974e+003,1.073475e+002
3.032938e+003,1.111930e+002
3.033902e+003,1.138065e+002
3.034866e+003,1.144550e+002
3.035831e+003,1.151956e+002
3.036795e+003,1.166041e+002
3.037759e+003,1.180352e+002
3.038723e+003,1.193354e+002
3.039688e+003,1.206708e+002
3.040652e+003,1.223448e+002
3.041616e+003,1.206249e+002
3.042580e+003,1.165743e+002
3.043544e+003,1.170377e+002
3.044509e+003,1.207922e+002
3.045473e+003,1.244381e+002
3.046437e+003,1.266464e+002
3.047401e+003,1.245914e+002
3.048366e+003,1.205831e+002
3.049330e+003,1.213089e+002
3.050294e+003,1.254265e+002
3.051258e+003,1.287219e+002
3.052223e+003,1.307921e+002
3.053187e+003,1.297176e+002
3.054151e+003,1.278907e+002
3.055115e+003,1.276989e+002
3.056080e+003,1.291852e+002
3.057044e+003,1.335177e+002
3.058008e+003,1.365573e+002
3.058972e+003,1.343189e+002
3.059937e+003,1.313830e+002
3.060901e+003,1.335533e+002
3.061865e+003,1.369171e+002
3.062829e+003,1.375629e+002
3.063793e+003,1.372822e+002
3.064758e+003,1.363776e+002
3.065722e+003,1.359186e+002
3.066686e+003,1.360468e+002
3.067650e+003,1.378916e+002
3.068615e+003,1.417201e+002
3.069579e+003,1.438912e+002
3.070543e+003,1.426073e+002
3.071507e+003,1.409756e+002
3.072471e+003,1.400412e+002
3.073436e+003,1.407890e+002
3.074400e+003,1.443902e+002
3.075364e+003,1.447305e+002
3.076328e+003,1.416961e+002
3.077293e+003,1.415118e+002
3.078257e+003,1.444186e+002
3.079221e+003,1.478829e+002
3.080185e+003,1.507485e+002
3.081150e+003,1.508857e+002
3.082114e+003,1.484614e+002
3.083078e+003,1.488395e+002
3.084042e+003,1.517290e+002
3.085007e+003,1.533515e+002
3.085971e+003,1.534613e+002
3.086935e+003,1.494778e+002
3.087899e+003,1.450397e+002
3.088864e+003,1.466758e+002
3.089828e+003,1.510759e+002
3.090792e+003,1.535594e+002
3.091756e+003,1.541144e+002
3.092720e+003,1.524317e+002
3.093685e+003,1.505104e+002
3.094649e+003,1.522757e+002
3.095613e+003,1.549893e+002
3.096577e+003,1.557949e+002
3.097542e+003,1.560453e+002
3.098506e+003,1.557940e+002
3.099470e+003,1.569573e+002
3.100434e+003,1.605962e+002
3.101398e+003,1.625462e+002
3.102363e+003,1.607619e+002
3.103327e+003,1.588374e+002
3.104291e+003,1.589148e+002
3.105255e+003,1.599248e+002
3.106220e+003,1.617583e+002
3.107184e+003,1.640105e+002
3.108148e+003,1.670118e+002
3.109112e+003,1.671270e+002
3.110077e+003,1.645208e+002
3.111041e+003,1.630928e+002
3.112005e+003,1.633481e+002
3.112969e+003,1.637637e+002
3.113934e+003,1.641102e+002
3.114898e+003,1.654105e+002
3.115862e+003,1.675181e+002
3.116826e+003,1.683695e+002
3.117791e+003,1.683158e+002
3.118755e+003,1.689370e+002
3.119719e+003,1.700133e+002
3.120683e+003,1.718375e+002
3.121647e+003,1.731114e+002
3.122612e+003,1.707171e+002
3.123576e+003,1.684381e+002
3.124540e+003,1.703118e+002
3.125504e+003,1.735493e+002
3.126469e+003,1.741709e+002
3.127433e+003,1.738856e+002
3.128397e+003,1.741392e+002
3.129361e+003,1.751398e+002
3.130325e+003,1.775826e+002
3.131290e+003,1.800680e+002
3.132254e+003,1.824150e+002
3.133218e+003,1.825427e+002
3.134182e+003,1.799796e+002
3.135147e+003,1.796264e+002
3.136111e+003,1.838409e+002
3.137075e+003,1.872424e+002
3.138039e+003,1.874140e+002
3.139004e+003,1.872187e+002
3.139968e+003,1.866781e+002
3.140932e+003,1.868891e+002
3.141896e+003,1.878272e+002
3.142861e+003,1.891451e+002
3.143825e+003,1.906394e+002
3.144789e+003,1.920559e+002
3.145753e+003,1.933452e+002
3.146718e+003,1.948964e+002
3.147682e+003,1.959933e+002
3.148646e+003,1.928802e+002
3.149610e+003,1.882445e+002
3.150574e+003,1.902774e+002
3.151539e+003,1.945973e+002
3.152503e+003,1.964408e+002
3.153467e+003,1.970133e+002
3.154431e+003,1.975943e+002
3.155396e+003,1.971525e+002
3.156360e+003,1.947808e+002
3.157324e+003,1.938689e+002
3.158288e+003,1.977162e+002
3.159252e+003,2.015348e+002
3.160217e+003,2.018390e+002
3.161181e+003,2.010106e+002
3.162145e+003,1.988304e+002
3.163109e+003,1.986416e+002
3.164074e+003,2.008132e+002
3.165038e+003,2.032021e+002
3.166002e+003,2.051406e+002
3.166966e+003,2.061815e+002
3.167931e+003,2.064251e+002
3.168895e+003,2.077856e+002
3.169859e+003,2.103100e+002
3.170823e+003,2.107639e+002
3.171788e+003,2.097088e+002
3.172752e+003,2.105061e+002
3.173716e+003,2.122615e+002
3.174680e+003,2.134850e+002
3.175645e+003,2.140658e+002
3.176609e+003,2.139520e+002
3.177573e+003,2.132547e+002
3.178537e+003,2.118018e+002
3.179501e+003,2.109868e+002
3.180466e+003,2.131129e+002
3.181430e+003,2.156691e+002
3.182394e+003,2.156584e+002
3.183358e+003,2.161530e+002
3.184323e+003,2.193800e+002
3.185287e+003,2.209401e+002
3.186251e+003,2.198184e+002
3.187215e+003,2.166961e+002
3.188179e+003,2.125430e+002
3.189144e+003,2.125853e+002
3.190108e+003,2.188004e+002
3.191072e+003,2.217029e+002
3.192036e+003,2.191009e+002
3.193001e+003,2.200213e+002
3.193965e+003,2.236290e+002
3.194929e+003,2.234503e+002
3.195893e+003,2.207720e+002
3.196858e+003,2.184034e+002
3.197822e+003,2.172900e+002
3.198786e+003,2.191059e+002
3.199750e+003,2.215637e+002
3.200715e+003,2.213480e+002
3.201679e+003,2.202549e+002
3.202643e+003,2.219499e+002
3.203607e+003,2.239206e+002
3.204572e+003,2.225314e+002
3.205536e+003,2.225120e+002
3.206500e+003,2.275669e+002
3.207464e+003,2.290573e+002
3.208428e+003,2.242986e+002
3.209393e+003,2.217523e+002
3.210357e+003,2.248127e+002
3.211321e+003,2.276597e+002
3.212285e+003,2.278191e+002
3.213250e+003,2.275723e+002
3.214214e+003,2.271989e+002
3.215178e+003,2.257734e+002
3.216142e+003,2.239248e+002
3.217106e+003,2.254319e+002
3.218071e+003,2.287876e+002
3.219035e+003,2.299029e+002
3.219999e+003,2.297103e+002
3.220963e+003,2.313104e+002
3.221928e+003,2.333699e+002
3.222892e+003,2.332683e+002
3.223856e+003,2.321673e+002
3.224820e+003,2.313646e+002
3.225785e+003,2.314350e+002
3.226749e+003,2.327174e+002
3.227713e+003,2.357892e+002
3.228677e+003,2.415104e+002
3.229642e+003,2.438167e+002
3.230606e+003,2.407638e+002
3.231570e+003,2.392929e+002
3.232534e+003,2.426720e+002
3.233499e+003,2.447495e+002
3.234463e+003,2.426866e+002
3.235427e+003,2.426648e+002
3.236391e+003,2.445740e+002
3.237355e+003,2.451320e+002
3.238320e+003,2.450218e+002
3.239284e+003,2.473998e+002
3.240248e+003,2.507168e+002
3.241212e+003,2.506248e+002
3.242177e+003,2.493271e+002
3.243141e+003,2.504286e+002
3.244105e+003,2.523196e+002
3.245069e+003,2.516978e+002
3.246033e+003,2.506058e+002
3.246998e+003,2.511174e+002
3.247962e+003,2.520106e+002
3.248926e+003,2.528971e+002
3.249890e+003,2.533774e+002
3.250855e+003,2.533506e+002
3.251819e+003,2.533082e+002
3.252783e+003,2.535504e+002
3.253747e+003,2.551211e+002
3.254712e+003,2.588459e+002
3.255676e+003,2.594890e+002
3.256640e+003,2.567177e+002
3.257604e+003,2.552539e+002
3.258569e+003,2.552846e+002
3.259533e+003,2.584694e+002
3.260497e+003,2.621157e+002
3.261461e+003,2.602035e+002
3.262426e+003,2.570762e+002
3.263390e+003,2.586505e+002
3.264354e+003,2.623299e+002
3.265318e+003,2.648996e+002
3.266282e+003,2.661545e+002
3.267247e+003,2.641577e+002
3.268211e+003,2.637518e+002
3.269175e+003,2.683168e+002
3.270139e+003,2.705075e+002
3.271104e+003,2.689491e+002
3.272068e+003,2.684430e+002
3.273032e+003,2.700788e+002
3.273996e+003,2.704714e+002
3.274960e+003,2.689175e+002
3.275925e+003,2.719644e+002
3.276889e+003,2.795579e+002
3.277853e+003,2.817533e+002
3.278817e+003,2.803857e+002
3.279782e+003,2.796719e+002
3.280746e+003,2.797155e+002
3.281710e+003,2.805213e+002
3.282674e+003,2.816933e+002
3.283639e+003,2.830700e+002
3.284603e+003,2.836439e+002
3.285567e+003,2.821983e+002
3.286531e+003,2.814051e+002
3.287496e+003,2.850880e+002
3.288460e+003,2.872121e+002
3.289424e+003,2.859396e+002
3.290388e+003,2.839654e+002
3.291353e+003,2.819360e+002
3.292317e+003,2.836600e+002
3.293281e+003,2.883398e+002
3.294245e+003,2.904876e+002
3.295209e+003,2.896772e+002
3.296174e+003,2.899492e+002
3.297138e+003,2.909583e+002
3.298102e+003,2.910954e+002
3.299066e+003,2.905444e+002
3.300031e+003,2.883061e+002
3.300995e+003,2.872070e+002
3.301959e+003,2.921300e+002
3.302923e+003,2.951865e+002
3.303887e+003,2.926934e+002
3.304852e+003,2.915104e+002
3.305816e+003,2.955921e+002
3.306780e+003,2.986233e+002
3.307744e+003,2.966077e+002
3.308709e+003,2.950950e+002
3.309673e+003,2.944903e+002
3.310637e+003,2.958042e+002
3.311601e+003,2.985701e+002
3.312566e+003,3.010672e+002
3.313530e+003,3.030606e+002
3.314494e+003,3.047934e+002
3.315458e+003,3.057781e+002
3.316423e+003,3.049648e+002
3.317387e+003,3.039651e+002
3.318351e+003,3.060771e+002
3.319315e+003,3.087495e+002
3.320280e+003,3.094413e+002
3.321244e+003,3.096205e+002
3.322208e+003,3.098360e+002
3.323172e+003,3.096076e+002
3.324136e+003,3.089424e+002
3.325101e+003,3.094573e+002
3.326065e+003,3.114031e+002
3.327029e+003,3.125209e+002
3.327993e+003,3.123112e+002
3.328958e+003,3.133942e+002
3.329922e+003,3.153991e+002
3.330886e+003,3.158093e+002
3.331850e+003,3.148177e+002
3.332814e+003,3.106619e+002
3.333779e+003,3.081490e+002
3.334743e+003,3.125405e+002
3.335707e+003,3.180836e+002
3.336671e+003,3.207684e+002
3.337636e+003,3.213751e+002
3.338600e+003,3.197384e+002
3.339564e+003,3.194520e+002
3.340528e+003,3.238105e+002
3.341493e+003,3.251229e+002
3.342457e+003,3.232469e+002
3.343421e+003,3.223228e+002
3.344385e+003,3.231292e+002
3.345350e+003,3.272413e+002
3.346314e+003,3.324818e+002
3.347278e+003,3.328190e+002
3.348242e+003,3.306187e+002
3.349207e+003,3.309956e+002
3.350171e+003,3.329377e+002
3.351135e+003,3.358683e+002
3.352099e+003,3.381472e+002
3.353063e+003,3.378571e+002
3.354028e+003,3.385764e+002
3.354992e+003,3.412020e+002
3.355956e+003,3.422239e+002
3.356920e+003,3.407850e+002
3.357885e+003,3.407289e+002
3.358849e+003,3.433687e+002
3.359813e+003,3.437492e+002
3.360777e+003,3.419127e+002
3.361741e+003,3.414915e+002
3.362706e+003,3.425259e+002
3.363670e+003,3.464865e+002
3.364634e+003,3.503914e+002
3.365598e+003,3.506309e+002
3.366563e+003,3.495359e+002
3.367527e+003,3.485931e+002
3.368491e+003,3.484713e+002
3.369455e+003,3.497325e+002
3.370420e+003,3.519639e+002
3.371384e+003,3.563610e+002
3.372348e+003,3.583364e+002
3.373312e+003,3.578218e+002
3.374277e+003,3.571609e+002
3.375241e+003,3.569146e+002
3.376205e+003,3.580981e+002
3.377169e+003,3.598210e+002
3.378134e+003,3.594879e+002
3.379098e+003,3.589224e+002
3.380062e+003,3.625134e+002
3.381026e+003,3.660563e+002
3.381990e+003,3.616131e+002
3.382955e+003,3.581416e+002
3.383919e+003,3.615390e+002
3.384883e+003,3.627648e+002
3.385847e+003,3.601112e+002
3.386812e+003,3.600262e+002
3.387776e+003,3.636829e+002
3.388740e+003,3.656263e+002
3.389704e+003,3.646158e+002
3.390668e+003,3.637124e+002
3.391633e+003,3.630599e+002
3.392597e+003,3.636594e+002
3.393561e+003,3.649684e+002
3.394525e+003,3.660129e+002
3.395490e+003,3.678835e+002
3.396454e+003,3.720200e+002
3.397418e+003,3.736752e+002
3.398382e+003,3.702497e+002
3.399347e+003,3.669631e+002
3.400311e+003,3.669498e+002
3.401275e+003,3.675833e+002
3.402239e+003,3.685402e+002
3.403204e+003,3.681440e+002
3.404168e+003,3.669556e+002
3.405132e+003,3.678981e+002
3.406096e+003,3.699936e+002
3.407061e+003,3.700249e+002
3.408025e+003,3.710087e+002
3.408989e+003,3.771364e+002
3.409953e+003,3.827600e+002
3.410917e+003,3.800093e+002
3.411882e+003,3.768062e+002
3.412846e+003,3.801082e+002
3.413810e+003,3.817355e+002
3.414774e+003,3.805501e+002
3.415739e+003,3.773604e+002
3.416703e+003,3.734137e+002
3.417667e+003,3.728726e+002
3.418631e+003,3.755476e+002
3.419595e+003,3.781338e+002
3.420560e+003,3.800687e+002
3.421524e+003,3.801852e+002
3.422488e+003,3.792412e+002
3.423452e+003,3.774028e+002
3.424417e+003,3.767648e+002
3.425381e+003,3.790201e+002
3.426345e+003,3.817623e+002
3.427309e+003,3.842461e+002
3.428274e+003,3.848598e+002
3.429238e+003,3.833164e+002
3.430202e+003,3.814721e+002
3.431166e+003,3.799166e+002
3.432131e+003,3.826324e+002
3.433095e+003,3.883455e+002
3.434059e+003,3.930217e+002
3.435023e+003,3.952830e+002
3.435988e+003,3.906531e+002
3.436952e+003,3.870340e+002
3.437916e+003,3.892715e+002
3.438880e+003,3.934267e+002
3.439844e+003,3.971155e+002
3.440809e+003,3.975917e+002
3.441773e+003,3.918814e+002
3.442737e+003,3.890099e+002
3.443701e+003,3.894696e+002
3.444666e+003,3.913981e+002
3.445630e+003,3.941813e+002
3.446594e+003,3.973146e+002
3.447558e+003,3.995317e+002
3.448522e+003,3.988745e+002
3.449487e+003,3.979017e+002
3.450451e+003,3.991213e+002
3.451415e+003,4.006226e+002
3.452379e+003,4.000917e+002
3.453344e+003,4.004485e+002
3.454308e+003,4.026155e+002
3.455272e+003,4.046594e+002
3.456236e+003,4.065522e+002
3.457201e+003,4.098042e+002
3.458165e+003,4.134443e+002
3.459129e+003,4.139076e+002
3.460093e+003,4.126538e+002
3.461058e+003,4.123599e+002
3.462022e+003,4.126214e+002
3.462986e+003,4.122179e+002
3.463950e+003,4.129481e+002
3.464915e+003,4.175283e+002
3.465879e+003,4.206194e+002
3.466843e+003,4.214010e+002
3.467807e+003,4.201448e+002
3.468771e+003,4.177575e+002
3.469736e+003,4.171586e+002
3.470700e+003,4.189730e+002
3.471664e+003,4.226334e+002
3.472628e+003,4.271506e+002
3.473593e+003,4.295652e+002
3.474557e+003,4.309731e+002
3.475521e+003,4.323610e+002
3.476485e+003,4.335563e+002
3.477449e+003,4.345543e+002
3.478414e+003,4.341308e+002
3.479378e+003,4.323467e+002
3.480342e+003,4.337841e+002
3.481306e+003,4.397679e+002
3.482271e+003,4.403650e+002
3.483235e+003,4.363705e+002
3.484199e+003,4.390788e+002
3.485163e+003,4.441306e+002
3.486128e+003,4.438004e+002
3.487092e+003,4.430511e+002
3.488056e+003,4.458472e+002
3.489020e+003,4.482199e+002
3.489985e+003,4.481570e+002
3.490949e+003,4.487557e+002
3.491913e+003,4.520128e+002
3.492877e+003,4.521505e+002
3.493842e+003,4.486971e+002
3.494806e+003,4.497866e+002
3.495770e+003,4.538040e+002
3.496734e+003,4.575410e+002
3.497698e+003,4.600167e+002
3.498663e+003,4.604573e+002
3.499627e+003,4.603098e+002
3.500591e+003,0.000000e+000
