9.974011e+001,3.653654e+002
1.007043e+002,3.667619e+002
1.016686e+002,3.697455e+002
1.026328e+002,3.747794e+002
1.035970e+002,3.770736e+002
1.045613e+002,3.763757e+002
1.055255e+002,3.735928e+002
1.064897e+002,3.703725e+002
1.074540e+002,3.663260e+002
1.084182e+002,3.620360e+002
1.093824e+002,3.563600e+002
1.103467e+002,3.497076e+002
1.113109e+002,3.445580e+002
1.122751e+002,3.458022e+002
1.132394e+002,3.486703e+002
1.142036e+002,3.510346e+002
1.151678e+002,3.515912e+002
1.161321e+002,3.506524e+002
1.170963e+002,3.497351e+002
1.180605e+002,3.485931e+002
1.190248e+002,3.470234e+002
1.199890e+002,3.449134e+002
1.209532e+002,3.426199e+002
1.219175e+002,3.407276e+002
1.228817e+002,3.392708e+002
1.238459e+002,3.380714e+002
1.248102e+002,3.368048e+002
1.257744e+002,3.348818e+002
1.267386e+002,3.333649e+002
1.277029e+002,3.323952e+002
1.286671e+002,3.317475e+002
1.296313e+002,3.307668e+002
1.305956e+002,3.290174e+002
1.315598e+002,3.270840e+002
1.325240e+002,3.252116e+002
1.334883e+002,3.235881e+002
1.344525e+002,3.222678e+002
1.354167e+002,3.208194e+002
1.363810e+002,3.193277e+002
1.373452e+002,3.182680e+002
1.383094e+002,3.180917e+002
1.392737e+002,3.191430e+002
1.402379e+002,3.187523e+002
1.412021e+002,3.162036e+002
1.421664e+002,3.127482e+002
1.431306e+002,3.103235e+002
1.440948e+002,3.102595e+002
1.450591e+002,3.101800e+002
1.460233e+002,3.096339e+002
1.469875e+002,3.086663e+002
1.479518e+002,3.076357e+002
1.489160e+002,3.065935e+002
1.498802e+002,3.054895e+002
1.508445e+002,3.046845e+002
1.518087e+002,3.043372e+002
1.527729e+002,3.044102e+002
1.537372e+002,3.043691e+002
1.547014e+002,3.037175e+002
1.556656e+002,3.020670e+002
1.566299e+002,2.992443e+002
1.575941e+002,2.953497e+002
1.585583e+002,2.921107e+002
1.595226e+002,2.893747e+002
1.604868e+002,2.873066e+002
1.614510e+002,2.861316e+002
1.624153e+002,2.863120e+002
1.633795e+002,2.856743e+002
1.643438e+002,2.840333e+002
1.653080e+002,2.819959e+002
1.662722e+002,2.803184e+002
1.672365e+002,2.794286e+002
1.682007e+002,2.788290e+002
1.691649e+002,2.786466e+002
1.701292e+002,2.787822e+002
1.710934e+002,2.789722e+002
1.720576e+002,2.782095e+002
1.730219e+002,2.770213e+002
1.739861e+002,2.763712e+002
1.749503e+002,2.764626e+002
1.759146e+002,2.770018e+002
1.768788e+002,2.760850e+002
1.778430e+002,2.740821e+002
1.788073e+002,2.724633e+002
1.797715e+002,2.722636e+002
1.807357e+002,2.742325e+002
1.817000e+002,2.752694e+002
1.826642e+002,2.738811e+002
1.836284e+002,2.717203e+002
1.845927e+002,2.701480e+002
1.855569e+002,2.702782e+002
1.865211e+002,2.698239e+002
1.874854e+002,2.679422e+002
1.884496e+002,2.652877e+002
1.894138e+002,2.623809e+002
1.903781e+002,2.594235e+002
1.913423e+002,2.572346e+002
1.923065e+002,2.574848e+002
1.932708e+002,2.600442e+002
1.942350e+002,2.637106e+002
1.951992e+002,2.648933e+002
1.961635e+002,2.624913e+002
1.971277e+002,2.605861e+002
1.980919e+002,2.601385e+002
1.990562e+002,2.611306e+002
2.000204e+002,2.615799e+002
2.009846e+002,2.608897e+002
2.019489e+002,2.597737e+002
2.029131e+002,2.582566e+002
2.038773e+002,2.564087e+002
2.048416e+002,2.548914e+002
2.058058e+002,2.539710e+002
2.067700e+002,2.535974e+002
2.077343e+002,2.540973e+002
2.086985e+002,2.556833e+002
2.096627e+002,2.577076e+002
2.106270e+002,2.577284e+002
2.115912e+002,2.561443e+002
2.125554e+002,2.541305e+002
2.135197e+002,2.529856e+002
2.144839e+002,2.529666e+002
2.154481e+002,2.530351e+002
2.164124e+002,2.540553e+002
2.173766e+002,2.552030e+002
2.183408e+002,2.549646e+002
2.193051e+002,2.511149e+002
2.202693e+002,2.481954e+002
2.212335e+002,2.473756e+002
2.221978e+002,2.480333e+002
2.231620e+002,2.488022e+002
2.241262e+002,2.486773e+002
2.250904e+002,2.484272e+002
2.260547e+002,2.482063e+002
2.270189e+002,2.479302e+002
2.279831e+002,2.474251e+002
2.289474e+002,2.465795e+002
2.299116e+002,2.456711e+002
2.308758e+002,2.447522e+002
2.318401e+002,2.437635e+002
2.328043e+002,2.427143e+002
2.337685e+002,2.432514e+002
2.347328e+002,2.459836e+002
2.356970e+002,2.483360e+002
2.366612e+002,2.493538e+002
2.376255e+002,2.489230e+002
2.385897e+002,2.481996e+002
2.395539e+002,2.477035e+002
2.405182e+002,2.471105e+002
2.414824e+002,2.460370e+002
2.424466e+002,2.441682e+002
2.434109e+002,2.424481e+002
2.443751e+002,2.418239e+002
2.453393e+002,2.419021e+002
2.463036e+002,2.423733e+002
2.472678e+002,2.429703e+002
2.482320e+002,2.438917e+002
2.491963e+002,2.450347e+002
2.501605e+002,2.463306e+002
2.511247e+002,2.475927e+002
2.520890e+002,2.485417e+002
2.530532e+002,2.486386e+002
2.540174e+002,2.491213e+002
2.549817e+002,2.508524e+002
2.559459e+002,2.531488e+002
2.569102e+002,2.545644e+002
2.578744e+002,2.528231e+002
2.588386e+002,2.507545e+002
2.598029e+002,2.500119e+002
2.607671e+002,2.504728e+002
2.617313e+002,2.512346e+002
2.626956e+002,2.507308e+002
2.636598e+002,2.498005e+002
2.646240e+002,2.492274e+002
2.655883e+002,2.490513e+002
2.665525e+002,2.490760e+002
2.675167e+002,2.491643e+002
2.684810e+002,2.495518e+002
2.694452e+002,2.502988e+002
2.704094e+002,2.516792e+002
2.713737e+002,2.537307e+002
2.723379e+002,2.551430e+002
2.733021e+002,2.553773e+002
2.742664e+002,2.550423e+002
2.752306e+002,2.542069e+002
2.761948e+002,2.529821e+002
2.771591e+002,2.519114e+002
2.781233e+002,2.512474e+002
2.790875e+002,2.512299e+002
2.800518e+002,2.523602e+002
2.810160e+002,2.547468e+002
2.819802e+002,2.574653e+002
2.829445e+002,2.574807e+002
2.839087e+002,2.556591e+002
2.848729e+002,2.538423e+002
2.858372e+002,2.534662e+002
2.868014e+002,2.549236e+002
2.877656e+002,2.563813e+002
2.887299e+002,2.576649e+002
2.896941e+002,2.586250e+002
2.906583e+002,2.592204e+002
2.916226e+002,2.595442e+002
2.925868e+002,2.599676e+002
2.935510e+002,2.607113e+002
2.945153e+002,2.614816e+002
2.954795e+002,2.619652e+002
2.964437e+002,2.618632e+002
2.974080e+002,2.611427e+002
2.983722e+002,2.599559e+002
2.993364e+002,2.587231e+002
3.003007e+002,2.579730e+002
3.012649e+002,2.582643e+002
3.022291e+002,2.595877e+002
3.031934e+002,2.608624e+002
3.041576e+002,2.621782e+002
3.051218e+002,2.635287e+002
3.060861e+002,2.648326e+002
3.070503e+002,2.657823e+002
3.080145e+002,2.662758e+002
3.089788e+002,2.663806e+002
3.099430e+002,2.664788e+002
3.109072e+002,2.671477e+002
3.118715e+002,2.695114e+002
3.128357e+002,2.714789e+002
3.137999e+002,2.711996e+002
3.147642e+002,2.693739e+002
3.157284e+002,2.677105e+002
3.166926e+002,2.691371e+002
3.176569e+002,2.720431e+002
3.186211e+002,2.730247e+002
3.195853e+002,2.718556e+002
3.205496e+002,2.695029e+002
3.215138e+002,2.684203e+002
3.224780e+002,2.688944e+002
3.234423e+002,2.697083e+002
3.244065e+002,2.712607e+002
3.253707e+002,2.732849e+002
3.263350e+002,2.745738e+002
3.272992e+002,2.745795e+002
3.282634e+002,2.745781e+002
3.292277e+002,2.744190e+002
3.301919e+002,2.742426e+002
3.311561e+002,2.744307e+002
3.321204e+002,2.755560e+002
3.330846e+002,2.767801e+002
3.340488e+002,2.778554e+002
3.350131e+002,2.786410e+002
3.359773e+002,2.790171e+002
3.369415e+002,2.784870e+002
3.379058e+002,2.774953e+002
3.388700e+002,2.773729e+002
3.398342e+002,2.786344e+002
3.407985e+002,2.809891e+002
3.417627e+002,2.823240e+002
3.427269e+002,2.809735e+002
3.436912e+002,2.798463e+002
3.446554e+002,2.797318e+002
3.456196e+002,2.806198e+002
3.465839e+002,2.815570e+002
3.475481e+002,2.825338e+002
3.485123e+002,2.832807e+002
3.494765e+002,2.831764e+002
3.504408e+002,2.822316e+002
3.514050e+002,2.811190e+002
3.523692e+002,2.814713e+002
3.533335e+002,2.824376e+002
3.542977e+002,2.829315e+002
3.552619e+002,2.827628e+002
3.562262e+002,2.824519e+002
3.571904e+002,2.842019e+002
3.581546e+002,2.884105e+002
3.591189e+002,2.915996e+002
3.600831e+002,2.924813e+002
3.610473e+002,2.910736e+002
3.620116e+002,2.894519e+002
3.629758e+002,2.867972e+002
3.639400e+002,2.853141e+002
3.649043e+002,2.864689e+002
3.658685e+002,2.899090e+002
3.668327e+002,2.928311e+002
3.677970e+002,2.918807e+002
3.687612e+002,2.902865e+002
3.697254e+002,2.891639e+002
3.706897e+002,2.889766e+002
3.716539e+002,2.896890e+002
3.726181e+002,2.917740e+002
3.735824e+002,2.945266e+002
3.745466e+002,2.963719e+002
3.755108e+002,2.969152e+002
3.764751e+002,2.964015e+002
3.774393e+002,2.958889e+002
3.784035e+002,2.948053e+002
3.793678e+002,2.940739e+002
3.803320e+002,2.941113e+002
3.812962e+002,2.948964e+002
3.822605e+002,2.958181e+002
3.832247e+002,2.970727e+002
3.841889e+002,2.978793e+002
3.851532e+002,2.974976e+002
3.861174e+002,2.961293e+002
3.870816e+002,2.948040e+002
3.880459e+002,2.954661e+002
3.890101e+002,2.967897e+002
3.899743e+002,2.971501e+002
3.909386e+002,2.963367e+002
3.919028e+002,2.950312e+002
3.928670e+002,2.952867e+002
3.938313e+002,2.972258e+002
3.947955e+002,2.991385e+002
3.957597e+002,3.012558e+002
3.967240e+002,3.034274e+002
3.976882e+002,3.045736e+002
3.986524e+002,3.036747e+002
3.996167e+002,3.028025e+002
4.005809e+002,3.019502e+002
4.015451e+002,3.010485e+002
4.025094e+002,3.000111e+002
4.034736e+002,2.988793e+002
4.044378e+002,2.982418e+002
4.054021e+002,2.982374e+002
4.063663e+002,2.987320e+002
4.073305e+002,2.995337e+002
4.082948e+002,3.005508e+002
4.092590e+002,3.016751e+002
4.102232e+002,3.020161e+002
4.111875e+002,3.012091e+002
4.121517e+002,2.998676e+002
4.131159e+002,2.995722e+002
4.140802e+002,3.020615e+002
4.150444e+002,3.045883e+002
4.160086e+002,3.068813e+002
4.169729e+002,3.089902e+002
4.179371e+002,3.110488e+002
4.189013e+002,3.128625e+002
4.198656e+002,3.136057e+002
4.208298e+002,3.133766e+002
4.217940e+002,3.124691e+002
4.227583e+002,3.111615e+002
4.237225e+002,3.096018e+002
4.246867e+002,3.085796e+002
4.256510e+002,3.085732e+002
4.266152e+002,3.092961e+002
4.275794e+002,3.104616e+002
4.285437e+002,3.118778e+002
4.295079e+002,3.138540e+002
4.304721e+002,3.149865e+002
4.314364e+002,3.151513e+002
4.324006e+002,3.151078e+002
4.333648e+002,3.154177e+002
4.343291e+002,3.159153e+002
4.352933e+002,3.163111e+002
4.362575e+002,3.170168e+002
4.372218e+002,3.175794e+002
4.381860e+002,3.173259e+002
4.391502e+002,3.157869e+002
4.401145e+002,3.145569e+002
4.410787e+002,3.164557e+002
4.420429e+002,3.199438e+002
4.430072e+002,3.229167e+002
4.439714e+002,3.238433e+002
4.449356e+002,3.226381e+002
4.458999e+002,3.216759e+002
4.468641e+002,3.210005e+002
4.478283e+002,3.207475e+002
4.487926e+002,3.213683e+002
4.497568e+002,3.232338e+002
4.507210e+002,3.247491e+002
4.516853e+002,3.246769e+002
4.526495e+002,3.242827e+002
4.536137e+002,3.244052e+002
4.545780e+002,3.251704e+002
4.555422e+002,3.255033e+002
4.565064e+002,3.236545e+002
4.574707e+002,3.218781e+002
4.584349e+002,3.215527e+002
4.593991e+002,3.226559e+002
4.603634e+002,3.239773e+002
4.613276e+002,3.229025e+002
4.622918e+002,3.200332e+002
4.632561e+002,3.181947e+002
4.642203e+002,3.182164e+002
4.651845e+002,3.195219e+002
4.661488e+002,3.200184e+002
4.671130e+002,3.179568e+002
4.680772e+002,3.165548e+002
4.690415e+002,3.165399e+002
4.700057e+002,3.174803e+002
4.709699e+002,3.184474e+002
4.719342e+002,3.192567e+002
4.728984e+002,3.193765e+002
4.738626e+002,3.179083e+002
4.748269e+002,3.157359e+002
4.757911e+002,3.142696e+002
4.767553e+002,3.150027e+002
4.777196e+002,3.173195e+002
4.786838e+002,3.184671e+002
4.796480e+002,3.183455e+002
4.806123e+002,3.176906e+002
4.815765e+002,3.174873e+002
4.825407e+002,3.184355e+002
4.835050e+002,3.182727e+002
4.844692e+002,3.161924e+002
4.854334e+002,3.140361e+002
4.863977e+002,3.130663e+002
4.873619e+002,3.134243e+002
4.883261e+002,3.126342e+002
4.892904e+002,3.098560e+002
4.902546e+002,3.071503e+002
4.912188e+002,3.053470e+002
4.921831e+002,3.046084e+002
4.931473e+002,3.044383e+002
4.941115e+002,3.046312e+002
4.950758e+002,3.050580e+002
4.960400e+002,3.056942e+002
4.970042e+002,3.065968e+002
4.979685e+002,3.077450e+002
4.989327e+002,3.086470e+002
4.998969e+002,3.089164e+002
5.008612e+002,3.085121e+002
5.018254e+002,3.067085e+002
5.027896e+002,3.040919e+002
5.037539e+002,3.026824e+002
5.047181e+002,3.046262e+002
5.056823e+002,3.063683e+002
5.066466e+002,3.070828e+002
5.076108e+002,3.070478e+002
5.085750e+002,3.066275e+002
5.095393e+002,3.056376e+002
5.105035e+002,3.046754e+002
5.114677e+002,3.049546e+002
5.124320e+002,3.063323e+002
5.133962e+002,3.082328e+002
5.143605e+002,3.099756e+002
5.153247e+002,3.113119e+002
5.162889e+002,3.125947e+002
5.172532e+002,3.139128e+002
5.182174e+002,3.156562e+002
5.191816e+002,3.182543e+002
5.201459e+002,3.218714e+002
5.211101e+002,3.246968e+002
5.220743e+002,3.253513e+002
5.230386e+002,3.260956e+002
5.240028e+002,3.284895e+002
5.249670e+002,3.328957e+002
5.259313e+002,3.379641e+002
5.268955e+002,3.418122e+002
5.278597e+002,3.448639e+002
5.288240e+002,3.472981e+002
5.297882e+002,3.494195e+002
5.307524e+002,3.517655e+002
5.317167e+002,3.554667e+002
5.326809e+002,3.611518e+002
5.336451e+002,3.667632e+002
5.346094e+002,3.714557e+002
5.355736e+002,3.754532e+002
5.365378e+002,3.796741e+002
5.375021e+002,3.849920e+002
5.384663e+002,3.905578e+002
5.394305e+002,3.971244e+002
5.403948e+002,4.032773e+002
5.413590e+002,4.073477e+002
5.423232e+002,4.081420e+002
5.432875e+002,4.079513e+002
5.442517e+002,4.092491e+002
5.452159e+002,4.117200e+002
5.461802e+002,4.148197e+002
5.471444e+002,4.179015e+002
5.481086e+002,4.203465e+002
5.490729e+002,4.211823e+002
5.500371e+002,4.213114e+002
5.510013e+002,4.223858e+002
5.519656e+002,4.254229e+002
5.529298e+002,4.300325e+002
5.538940e+002,4.333253e+002
5.548583e+002,4.336384e+002
5.558225e+002,4.328557e+002
5.567867e+002,4.308427e+002
5.577510e+002,4.282372e+002
5.587152e+002,4.261308e+002
5.596794e+002,4.255643e+002
5.606437e+002,4.254304e+002
5.616079e+002,4.244695e+002
5.625721e+002,4.230781e+002
5.635364e+002,4.220794e+002
5.645006e+002,4.221835e+002
5.654648e+002,4.226008e+002
5.664291e+002,4.205194e+002
5.673933e+002,4.168280e+002
5.683575e+002,4.134847e+002
5.693218e+002,4.114052e+002
5.702860e+002,4.100906e+002
5.712502e+002,4.082171e+002
5.722145e+002,4.063889e+002
5.731787e+002,4.036883e+002
5.741429e+002,3.998798e+002
5.751072e+002,3.953918e+002
5.760714e+002,3.912184e+002
5.770356e+002,3.873064e+002
5.779999e+002,3.845636e+002
5.789641e+002,3.834896e+002
5.799283e+002,3.834439e+002
5.808926e+002,3.835015e+002
5.818568e+002,3.829138e+002
5.828210e+002,3.813277e+002
5.837853e+002,3.780981e+002
5.847495e+002,3.733599e+002
5.857137e+002,3.686759e+002
5.866780e+002,3.655041e+002
5.876422e+002,3.641238e+002
5.886064e+002,3.631755e+002
5.895707e+002,3.637522e+002
5.905349e+002,3.637509e+002
5.914991e+002,3.616738e+002
5.924634e+002,3.573899e+002
5.934276e+002,3.528888e+002
5.943918e+002,3.497001e+002
5.953560e+002,3.469333e+002
5.963203e+002,3.439058e+002
5.972845e+002,3.406399e+002
5.982487e+002,3.377396e+002
5.992130e+002,3.364257e+002
6.001772e+002,3.366516e+002
6.011414e+002,3.349263e+002
6.021057e+002,3.303949e+002
6.030699e+002,3.247430e+002
6.040341e+002,3.204337e+002
6.049984e+002,3.186249e+002
6.059626e+002,3.160693e+002
6.069268e+002,3.127787e+002
6.078911e+002,3.099082e+002
6.088553e+002,3.083814e+002
6.098195e+002,3.079417e+002
6.107838e+002,3.059440e+002
6.117480e+002,2.982653e+002
6.127122e+002,2.908300e+002
6.136765e+002,2.871645e+002
6.146407e+002,2.869483e+002
6.156049e+002,2.872868e+002
6.165692e+002,2.842195e+002
6.175334e+002,2.782885e+002
6.184976e+002,2.743162e+002
6.194619e+002,2.728308e+002
6.204261e+002,2.723575e+002
6.213903e+002,2.708688e+002
6.223546e+002,2.675072e+002
6.233188e+002,2.647587e+002
6.242830e+002,2.632576e+002
6.252473e+002,2.614728e+002
6.262115e+002,2.582568e+002
6.271757e+002,2.535878e+002
6.281400e+002,2.493527e+002
6.291042e+002,2.473480e+002
6.300684e+002,2.460835e+002
6.310327e+002,2.452657e+002
6.319969e+002,2.445403e+002
6.329611e+002,2.433118e+002
6.339254e+002,2.406012e+002
6.348896e+002,2.362262e+002
6.358538e+002,2.327013e+002
6.368181e+002,2.304376e+002
6.377823e+002,2.284446e+002
6.387465e+002,2.254131e+002
6.397108e+002,2.207403e+002
6.406750e+002,2.171856e+002
6.416392e+002,2.148733e+002
6.426035e+002,2.127664e+002
6.435677e+002,2.105025e+002
6.445319e+002,2.081392e+002
6.454962e+002,2.060300e+002
6.464604e+002,2.046867e+002
6.474246e+002,2.035853e+002
6.483889e+002,2.021360e+002
6.493531e+002,2.003052e+002
6.503173e+002,1.985682e+002
6.512816e+002,1.977447e+002
6.522458e+002,1.977507e+002
6.532100e+002,1.952497e+002
6.541743e+002,1.897260e+002
6.551385e+002,1.840519e+002
6.561027e+002,1.805247e+002
6.570670e+002,1.793886e+002
6.580312e+002,1.780652e+002
6.589954e+002,1.759778e+002
6.599597e+002,1.736742e+002
6.609239e+002,1.717071e+002
6.618881e+002,1.701154e+002
6.628524e+002,1.684103e+002
6.638166e+002,1.658808e+002
6.647808e+002,1.633993e+002
6.657451e+002,1.618433e+002
6.667093e+002,1.607817e+002
6.676735e+002,1.593136e+002
6.686378e+002,1.566385e+002
6.696020e+002,1.528507e+002
6.705662e+002,1.499832e+002
6.715305e+002,1.480620e+002
6.724947e+002,1.464668e+002
6.734589e+002,1.453357e+002
6.744232e+002,1.447406e+002
6.753874e+002,1.436961e+002
6.763516e+002,1.409227e+002
6.773159e+002,1.386526e+002
6.782801e+002,1.375404e+002
6.792443e+002,1.369865e+002
6.802086e+002,1.361111e+002
6.811728e+002,1.344863e+002
6.821370e+002,1.320696e+002
6.831013e+002,1.286995e+002
6.840655e+002,1.250509e+002
6.850297e+002,1.221010e+002
6.859940e+002,1.203756e+002
6.869582e+002,1.196235e+002
6.879224e+002,1.187593e+002
6.888867e+002,1.175367e+002
6.898509e+002,1.165073e+002
6.908151e+002,1.166651e+002
6.917794e+002,1.171930e+002
6.927436e+002,1.158998e+002
6.937078e+002,1.110449e+002
6.946721e+002,1.065960e+002
6.956363e+002,1.034733e+002
6.966005e+002,1.015571e+002
6.975648e+002,1.009701e+002
6.985290e+002,1.015491e+002
6.994932e+002,1.021440e+002
7.004575e+002,1.007829e+002
7.014217e+002,9.836776e+001
7.023859e+002,9.596201e+001
7.033502e+002,9.393272e+001
7.043144e+002,9.227216e+001
7.052786e+002,9.078869e+001
7.062429e+002,8.921159e+001
7.072071e+002,8.785179e+001
7.081713e+002,8.699507e+001
7.091356e+002,8.643351e+001
7.100998e+002,8.592955e+001
7.110640e+002,8.534445e+001
7.120283e+002,8.469403e+001
7.129925e+002,8.375335e+001
7.139567e+002,8.301386e+001
7.149210e+002,8.327153e+001
7.158852e+002,8.419170e+001
7.168494e+002,8.447942e+001
7.178137e+002,8.236762e+001
7.187779e+002,7.848693e+001
7.197421e+002,7.634390e+001
7.207064e+002,7.593972e+001
7.216706e+002,7.609908e+001
7.226348e+002,7.589551e+001
7.235991e+002,7.537653e+001
7.245633e+002,7.493064e+001
7.255275e+002,7.428070e+001
7.264918e+002,7.345863e+001
7.274560e+002,7.250073e+001
7.284202e+002,7.160333e+001
7.293845e+002,7.112948e+001
7.303487e+002,7.166295e+001
7.313129e+002,7.172186e+001
7.322772e+002,6.917285e+001
7.332414e+002,6.569647e+001
7.342056e+002,6.417135e+001
7.351699e+002,6.642755e+001
7.361341e+002,7.142191e+001
7.370983e+002,7.412522e+001
7.380626e+002,7.416974e+001
7.390268e+002,7.353682e+001
7.399910e+002,7.259555e+001
7.409553e+002,7.161694e+001
7.419195e+002,7.094942e+001
7.428837e+002,7.029194e+001
7.438480e+002,6.992779e+001
7.448122e+002,7.041278e+001
7.457764e+002,7.130859e+001
7.467407e+002,7.225954e+001
7.477049e+002,7.315191e+001
7.486691e+002,7.411136e+001
7.496334e+002,7.494565e+001
7.505976e+002,7.557781e+001
7.515618e+002,7.630729e+001
7.525261e+002,7.721376e+001
7.534903e+002,7.817082e+001
7.544545e+002,7.898351e+001
7.554188e+002,7.980051e+001
7.563830e+002,8.110929e+001
7.573472e+002,8.274117e+001
7.583115e+002,8.414979e+001
7.592757e+002,8.543567e+001
7.602399e+002,8.674654e+001
7.612042e+002,8.759212e+001
7.621684e+002,8.622136e+001
7.631326e+002,8.534321e+001
7.640969e+002,8.653887e+001
7.650611e+002,8.903311e+001
7.660253e+002,9.161755e+001
7.669896e+002,9.354635e+001
7.679538e+002,9.508751e+001
7.689180e+002,9.617559e+001
7.698823e+002,9.648483e+001
7.708465e+002,9.651219e+001
7.718107e+002,9.676438e+001
7.727750e+002,9.731420e+001
7.737392e+002,9.761642e+001
7.747034e+002,9.741637e+001
7.756677e+002,9.732512e+001
7.766319e+002,9.696286e+001
7.775961e+002,9.672688e+001
7.785604e+002,9.712186e+001
7.795246e+002,9.828823e+001
7.804888e+002,9.947560e+001
7.814531e+002,1.003385e+002
7.824173e+002,1.007240e+002
7.833815e+002,1.002295e+002
7.843458e+002,9.910236e+001
7.853100e+002,9.811821e+001
7.862742e+002,9.815224e+001
7.872385e+002,9.904226e+001
7.882027e+002,9.875285e+001
7.891669e+002,9.669662e+001
7.901312e+002,9.471289e+001
7.910954e+002,9.439487e+001
7.920596e+002,9.570223e+001
7.930239e+002,9.627442e+001
7.939881e+002,9.447878e+001
7.949523e+002,9.306120e+001
7.959166e+002,9.314109e+001
7.968808e+002,9.376416e+001
7.978450e+002,9.358805e+001
7.988093e+002,9.195805e+001
7.997735e+002,8.986759e+001
8.007377e+002,8.945471e+001
8.017020e+002,8.980793e+001
8.026662e+002,8.909587e+001
8.036304e+002,8.668837e+001
8.045947e+002,8.387278e+001
8.055589e+002,8.339358e+001
8.065231e+002,8.710437e+001
8.074874e+002,8.858078e+001
8.084516e+002,8.708285e+001
8.094158e+002,8.456715e+001
8.103801e+002,8.198382e+001
8.113443e+002,7.967513e+001
8.123085e+002,7.806450e+001
8.132728e+002,7.742554e+001
8.142370e+002,7.687939e+001
8.152012e+002,7.607412e+001
8.161655e+002,7.474834e+001
8.171297e+002,7.270503e+001
8.180939e+002,6.997467e+001
8.190582e+002,6.713206e+001
8.200224e+002,6.548985e+001
8.209866e+002,6.488724e+001
8.219509e+002,6.410463e+001
8.229151e+002,6.254885e+001
8.238793e+002,6.050668e+001
8.248436e+002,5.870757e+001
8.258078e+002,5.721168e+001
8.267720e+002,5.604873e+001
8.277363e+002,5.511288e+001
8.287005e+002,5.430404e+001
8.296647e+002,5.398061e+001
8.306290e+002,5.406683e+001
8.315932e+002,5.378574e+001
8.325574e+002,5.219424e+001
8.335217e+002,4.973367e+001
8.344859e+002,4.688660e+001
8.354501e+002,4.379445e+001
8.364144e+002,4.150152e+001
8.373786e+002,4.107716e+001
8.383428e+002,4.251843e+001
8.393071e+002,4.318620e+001
8.402713e+002,4.265617e+001
8.412355e+002,4.191045e+001
8.421998e+002,4.050848e+001
8.431640e+002,3.908241e+001
8.441282e+002,3.883199e+001
8.450925e+002,4.043078e+001
8.460567e+002,4.165010e+001
8.470209e+002,4.045557e+001
8.479852e+002,3.858179e+001
8.489494e+002,3.744444e+001
8.499136e+002,3.727005e+001
8.508779e+002,3.731459e+001
8.518421e+002,3.651836e+001
8.528063e+002,3.488297e+001
8.537706e+002,3.420822e+001
8.547348e+002,3.471730e+001
8.556990e+002,3.548974e+001
8.566633e+002,3.594705e+001
8.576275e+002,3.607739e+001
8.585917e+002,3.629919e+001
8.595560e+002,3.726444e+001
8.605202e+002,3.768308e+001
8.614844e+002,3.685951e+001
8.624487e+002,3.567188e+001
8.634129e+002,3.500228e+001
8.643771e+002,3.504956e+001
8.653414e+002,3.506925e+001
8.663056e+002,3.401056e+001
8.672698e+002,3.286159e+001
8.682341e+002,3.322949e+001
8.691983e+002,3.515934e+001
8.701625e+002,3.718860e+001
8.711268e+002,3.758883e+001
8.720910e+002,3.598621e+001
8.730552e+002,3.444572e+001
8.740195e+002,3.355016e+001
8.749837e+002,3.317066e+001
8.759479e+002,3.313891e+001
8.769122e+002,3.325192e+001
8.778764e+002,3.333691e+001
8.788406e+002,3.329919e+001
8.798049e+002,3.301436e+001
8.807691e+002,3.274548e+001
8.817333e+002,3.253286e+001
8.826976e+002,3.209371e+001
8.836618e+002,3.142882e+001
8.846260e+002,3.100333e+001
8.855903e+002,3.162995e+001
8.865545e+002,3.347382e+001
8.875187e+002,3.437328e+001
8.884830e+002,3.413013e+001
8.894472e+002,3.343379e+001
8.904114e+002,3.233937e+001
8.913757e+002,3.104070e+001
8.923399e+002,3.054837e+001
8.933041e+002,3.142081e+001
8.942684e+002,3.222542e+001
8.952326e+002,3.232859e+001
8.961968e+002,3.229865e+001
8.971611e+002,3.294106e+001
8.981253e+002,3.452666e+001
8.990895e+002,3.643648e+001
9.000538e+002,3.758869e+001
9.010180e+002,3.796407e+001
9.019822e+002,3.816296e+001
9.029465e+002,3.817484e+001
9.039107e+002,3.835799e+001
9.048749e+002,3.907444e+001
9.058392e+002,4.030544e+001
9.068034e+002,4.142086e+001
9.077676e+002,4.219606e+001
9.087319e+002,4.323727e+001
9.096961e+002,4.514778e+001
9.106603e+002,4.734654e+001
9.116246e+002,4.894005e+001
9.125888e+002,4.948030e+001
9.135530e+002,4.952866e+001
9.145173e+002,4.948749e+001
9.154815e+002,4.945850e+001
9.164457e+002,4.983971e+001
9.174100e+002,5.085449e+001
9.183742e+002,5.244499e+001
9.193384e+002,5.445387e+001
9.203027e+002,5.688860e+001
9.212669e+002,5.942844e+001
9.222311e+002,6.209386e+001
9.231954e+002,6.396992e+001
9.241596e+002,6.431221e+001
9.251238e+002,6.436044e+001
9.260881e+002,6.621419e+001
9.270523e+002,7.076091e+001
9.280165e+002,7.526735e+001
9.289808e+002,7.782051e+001
9.299450e+002,7.932852e+001
9.309092e+002,7.990994e+001
9.318735e+002,7.988504e+001
9.328377e+002,8.014029e+001
9.338019e+002,8.176961e+001
9.347662e+002,8.473697e+001
9.357304e+002,8.683102e+001
9.366946e+002,8.803976e+001
9.376589e+002,8.941603e+001
9.386231e+002,9.109399e+001
9.395873e+002,9.287991e+001
9.405516e+002,9.470560e+001
9.415158e+002,9.684738e+001
9.424800e+002,9.875188e+001
9.434443e+002,1.005119e+002
9.444085e+002,1.018390e+002
9.453727e+002,1.022557e+002
9.463370e+002,1.019122e+002
9.473012e+002,1.012666e+002
9.482654e+002,1.005744e+002
9.492297e+002,1.000194e+002
9.501939e+002,1.017999e+002
9.511581e+002,1.063025e+002
9.521224e+002,1.094461e+002
9.530866e+002,1.084455e+002
9.540508e+002,1.049563e+002
9.550151e+002,1.033560e+002
9.559793e+002,1.043426e+002
9.569435e+002,1.049450e+002
9.579078e+002,1.047328e+002
9.588720e+002,1.049115e+002
9.598362e+002,1.062921e+002
9.608005e+002,1.084545e+002
9.617647e+002,1.101800e+002
9.627289e+002,1.105330e+002
9.636932e+002,1.102040e+002
9.646574e+002,1.107497e+002
9.656216e+002,1.117515e+002
9.665859e+002,1.122772e+002
9.675501e+002,1.120629e+002
9.685143e+002,1.115988e+002
9.694786e+002,1.115883e+002
9.704428e+002,1.118936e+002
9.714070e+002,1.133368e+002
9.723713e+002,1.158780e+002
9.733355e+002,1.184550e+002
9.742997e+002,1.211118e+002
9.752640e+002,1.238699e+002
9.762282e+002,1.263370e+002
9.771924e+002,1.279167e+002
9.781567e+002,1.295103e+002
9.791209e+002,1.331587e+002
9.800851e+002,1.375245e+002
9.810494e+002,1.404251e+002
9.820136e+002,1.414525e+002
9.829778e+002,1.420795e+002
9.839421e+002,1.442803e+002
9.849063e+002,1.481301e+002
9.858705e+002,1.509683e+002
9.868348e+002,1.539990e+002
9.877990e+002,1.558164e+002
9.887632e+002,1.547653e+002
9.897275e+002,1.524304e+002
9.906917e+002,1.515670e+002
9.916559e+002,1.529127e+002
9.926202e+002,1.541137e+002
9.935844e+002,1.536391e+002
9.945486e+002,1.527837e+002
9.955129e+002,1.525393e+002
9.964771e+002,1.529795e+002
9.974413e+002,1.534771e+002
9.984056e+002,1.533167e+002
9.993698e+002,1.524033e+002
1.000334e+003,1.515054e+002
1.001298e+003,1.504262e+002
1.002263e+003,1.500826e+002
1.003227e+003,1.507071e+002
1.004191e+003,1.519926e+002
1.005155e+003,1.538266e+002
1.006119e+003,1.561934e+002
1.007084e+003,1.580901e+002
1.008048e+003,1.590355e+002
1.009012e+003,1.597602e+002
1.009976e+003,1.598227e+002
1.010941e+003,1.597267e+002
1.011905e+003,1.607590e+002
1.012869e+003,1.636129e+002
1.013833e+003,1.672595e+002
1.014798e+003,1.692273e+002
1.015762e+003,1.693507e+002
1.016726e+003,1.702038e+002
1.017690e+003,1.716083e+002
1.018654e+003,1.737829e+002
1.019619e+003,1.772189e+002
1.020583e+003,1.815791e+002
1.021547e+003,1.850871e+002
1.022511e+003,1.867048e+002
1.023476e+003,1.879965e+002
1.024440e+003,1.896772e+002
1.025404e+003,1.918745e+002
1.026368e+003,1.947723e+002
1.027333e+003,1.982883e+002
1.028297e+003,2.020838e+002
1.029261e+003,2.056955e+002
1.030225e+003,2.088977e+002
1.031190e+003,2.114468e+002
1.032154e+003,2.136147e+002
1.033118e+003,2.164315e+002
1.034082e+003,2.205791e+002
1.035047e+003,2.252793e+002
1.036011e+003,2.289339e+002
1.036975e+003,2.311043e+002
1.037939e+003,2.329413e+002
1.038903e+003,2.343995e+002
1.039868e+003,2.368539e+002
1.040832e+003,2.415367e+002
1.041796e+003,2.475030e+002
1.042760e+003,2.527630e+002
1.043725e+003,2.560952e+002
1.044689e+003,2.581057e+002
1.045653e+003,2.601436e+002
1.046617e+003,2.622303e+002
1.047582e+003,2.651913e+002
1.048546e+003,2.701088e+002
1.049510e+003,2.754669e+002
1.050474e+003,2.793178e+002
1.051438e+003,2.814797e+002
1.052403e+003,2.839380e+002
1.053367e+003,2.866608e+002
1.054331e+003,2.900011e+002
1.055295e+003,2.948789e+002
1.056260e+003,3.001725e+002
1.057224e+003,3.045756e+002
1.058188e+003,3.080027e+002
1.059152e+003,3.117161e+002
1.060117e+003,3.171358e+002
1.061081e+003,3.236993e+002
1.062045e+003,3.289414e+002
1.063009e+003,3.325219e+002
1.063974e+003,3.356642e+002
1.064938e+003,3.388741e+002
1.065902e+003,3.427410e+002
1.066866e+003,3.483294e+002
1.067830e+003,3.561573e+002
1.068795e+003,3.623667e+002
1.069759e+003,3.655333e+002
1.070723e+003,3.680686e+002
1.071687e+003,3.706138e+002
1.072652e+003,3.737504e+002
1.073616e+003,3.780694e+002
1.074580e+003,3.835676e+002
1.075544e+003,3.890118e+002
1.076509e+003,3.926769e+002
1.077473e+003,3.949746e+002
1.078437e+003,3.979523e+002
1.079401e+003,4.019810e+002
1.080365e+003,4.062056e+002
1.081330e+003,4.099059e+002
1.082294e+003,4.130201e+002
1.083258e+003,4.156621e+002
1.084222e+003,4.176417e+002
1.085187e+003,4.197206e+002
1.086151e+003,4.217422e+002
1.087115e+003,4.243219e+002
1.088079e+003,4.284515e+002
1.089043e+003,4.335249e+002
1.090008e+003,4.377009e+002
1.090972e+003,4.396391e+002
1.091936e+003,4.400644e+002
1.092900e+003,4.409506e+002
1.093865e+003,4.421249e+002
1.094829e+003,4.417865e+002
1.095793e+003,4.390465e+002
1.096757e+003,4.359484e+002
1.097722e+003,4.347325e+002
1.098686e+003,4.351308e+002
1.099650e+003,4.345081e+002
1.100614e+003,4.326578e+002
1.101578e+003,4.306975e+002
1.102543e+003,4.290179e+002
1.103507e+003,4.270356e+002
1.104471e+003,4.236654e+002
1.105435e+003,4.187532e+002
1.106400e+003,4.135132e+002
1.107364e+003,4.095730e+002
1.108328e+003,4.067914e+002
1.109292e+003,4.030449e+002
1.110257e+003,3.985325e+002
1.111221e+003,3.939369e+002
1.112185e+003,3.885264e+002
1.113149e+003,3.828835e+002
1.114114e+003,3.785492e+002
1.115078e+003,3.760083e+002
1.116042e+003,3.726513e+002
1.117006e+003,3.679362e+002
1.117970e+003,3.623584e+002
1.118935e+003,3.547794e+002
1.119899e+003,3.466376e+002
1.120863e+003,3.401610e+002
1.121827e+003,3.359725e+002
1.122792e+003,3.324761e+002
1.123756e+003,3.275373e+002
1.124720e+003,3.209488e+002
1.125684e+003,3.142956e+002
1.126649e+003,3.080193e+002
1.127613e+003,3.023529e+002
1.128577e+003,2.974997e+002
1.129541e+003,2.930420e+002
1.130505e+003,2.883452e+002
1.131470e+003,2.832770e+002
1.132434e+003,2.780059e+002
1.133398e+003,2.726783e+002
1.134362e+003,2.676457e+002
1.135327e+003,2.627612e+002
1.136291e+003,2.581172e+002
1.137255e+003,2.540781e+002
1.138219e+003,2.507427e+002
1.139184e+003,2.477253e+002
1.140148e+003,2.444493e+002
1.141112e+003,2.406131e+002
1.142076e+003,2.354678e+002
1.143041e+003,2.287805e+002
1.144005e+003,2.228865e+002
1.144969e+003,2.192241e+002
1.145933e+003,2.164175e+002
1.146897e+003,2.120549e+002
1.147862e+003,2.056190e+002
1.148826e+003,1.998969e+002
1.149790e+003,1.969871e+002
1.150754e+003,1.945301e+002
1.151719e+003,1.911505e+002
1.152683e+003,1.872669e+002
1.153647e+003,1.835566e+002
1.154611e+003,1.803198e+002
1.155576e+003,1.773042e+002
1.156540e+003,1.739920e+002
1.157504e+003,1.700161e+002
1.158468e+003,1.668644e+002
1.159432e+003,1.658638e+002
1.160397e+003,1.641476e+002
1.161361e+003,1.608532e+002
1.162325e+003,1.570134e+002
1.163289e+003,1.538325e+002
1.164254e+003,1.512462e+002
1.165218e+003,1.478456e+002
1.166182e+003,1.425408e+002
1.167146e+003,1.370654e+002
1.168111e+003,1.325391e+002
1.169075e+003,1.288109e+002
1.170039e+003,1.258484e+002
1.171003e+003,1.235943e+002
1.171968e+003,1.216925e+002
1.172932e+003,1.197051e+002
1.173896e+003,1.176992e+002
1.174860e+003,1.161321e+002
1.175824e+003,1.156068e+002
1.176789e+003,1.142852e+002
1.177753e+003,1.116685e+002
1.178717e+003,1.085759e+002
1.179681e+003,1.055472e+002
1.180646e+003,1.026729e+002
1.181610e+003,1.000037e+002
1.182574e+003,9.768501e+001
1.183538e+003,9.535341e+001
1.184503e+003,9.244809e+001
1.185467e+003,8.929247e+001
1.186431e+003,8.636024e+001
1.187395e+003,8.368152e+001
1.188359e+003,8.123370e+001
1.189324e+003,7.919885e+001
1.190288e+003,7.770886e+001
1.191252e+003,7.651259e+001
1.192216e+003,7.603337e+001
1.193181e+003,7.480272e+001
1.194145e+003,7.199614e+001
1.195109e+003,6.881091e+001
1.196073e+003,6.613985e+001
1.197038e+003,6.404430e+001
1.198002e+003,6.211836e+001
1.198966e+003,6.010324e+001
1.199930e+003,5.819627e+001
1.200895e+003,5.684821e+001
1.201859e+003,5.590474e+001
1.202823e+003,5.476672e+001
1.203787e+003,5.337656e+001
1.204751e+003,5.160791e+001
1.205716e+003,4.916733e+001
1.206680e+003,4.636969e+001
1.207644e+003,4.404549e+001
1.208608e+003,4.219443e+001
1.209573e+003,4.062119e+001
1.210537e+003,4.001968e+001
1.211501e+003,3.930235e+001
1.212465e+003,3.754276e+001
1.213430e+003,3.553577e+001
1.214394e+003,3.452454e+001
1.215358e+003,3.463423e+001
1.216322e+003,3.457574e+001
1.217286e+003,3.298515e+001
1.218251e+003,3.016530e+001
1.219215e+003,2.777185e+001
1.220179e+003,2.571532e+001
1.221143e+003,2.466168e+001
1.222108e+003,2.549063e+001
1.223072e+003,2.683676e+001
1.224036e+003,2.700941e+001
1.225000e+003,2.594315e+001
1.225965e+003,2.498804e+001
1.226929e+003,2.462418e+001
1.227893e+003,2.415770e+001
1.228857e+003,2.411414e+001
1.229822e+003,2.401927e+001
1.230786e+003,2.251898e+001
1.231750e+003,1.967630e+001
1.232714e+003,1.710701e+001
1.233678e+003,1.622052e+001
1.234643e+003,1.657419e+001
1.235607e+003,1.660652e+001
1.236571e+003,1.647899e+001
1.237535e+003,1.635948e+001
1.238500e+003,1.603058e+001
1.239464e+003,1.565944e+001
1.240428e+003,1.499463e+001
1.241392e+003,1.428656e+001
1.242357e+003,1.445413e+001
1.243321e+003,1.583121e+001
1.244285e+003,1.670357e+001
1.245249e+003,1.511977e+001
1.246214e+003,1.258757e+001
1.247178e+003,1.158934e+001
1.248142e+003,1.171358e+001
1.249106e+003,1.191861e+001
1.250070e+003,1.189973e+001
1.251035e+003,1.194792e+001
1.251999e+003,1.255750e+001
1.252963e+003,1.376193e+001
1.253927e+003,1.417712e+001
1.254892e+003,1.307607e+001
1.255856e+003,1.236873e+001
1.256820e+003,1.290424e+001
1.257784e+003,1.345293e+001
1.258749e+003,1.286021e+001
1.259713e+003,1.139966e+001
1.260677e+003,1.006905e+001
1.261641e+003,9.460495e+000
1.262605e+003,9.571182e+000
1.263570e+003,1.064027e+001
1.264534e+003,1.272069e+001
1.265498e+003,1.379614e+001
1.266462e+003,1.376625e+001
1.267427e+003,1.313744e+001
1.268391e+003,1.137541e+001
1.269355e+003,9.250092e+000
1.270319e+003,8.474625e+000
1.271284e+003,9.344910e+000
1.272248e+003,9.722137e+000
1.273212e+003,8.453049e+000
1.274176e+003,7.361481e+000
1.275141e+003,7.197159e+000
1.276105e+003,7.402603e+000
1.277069e+003,7.716156e+000
1.278033e+003,8.118301e+000
1.278997e+003,8.464737e+000
1.279962e+003,8.619858e+000
1.280926e+003,8.795364e+000
1.281890e+003,9.311340e+000
1.282854e+003,1.001167e+001
1.283819e+003,9.839706e+000
1.284783e+003,8.573135e+000
1.285747e+003,7.241684e+000
1.286711e+003,6.314346e+000
1.287676e+003,5.906799e+000
1.288640e+003,6.040070e+000
1.289604e+003,6.575562e+000
1.290568e+003,7.102554e+000
1.291532e+003,7.353470e+000
1.292497e+003,7.328247e+000
1.293461e+003,7.092865e+000
1.294425e+003,6.781418e+000
1.295389e+003,6.510498e+000
1.296354e+003,6.151154e+000
1.297318e+003,5.970947e+000
1.298282e+003,6.324417e+000
1.299246e+003,7.125290e+000
1.300211e+003,8.114731e+000
1.301175e+003,9.961990e+000
1.302139e+003,1.084557e+001
1.303103e+003,8.608322e+000
1.304068e+003,6.243591e+000
1.305032e+003,5.874146e+000
1.305996e+003,6.857056e+000
1.306960e+003,7.782913e+000
1.307924e+003,8.068451e+000
1.308889e+003,7.958694e+000
1.309853e+003,7.548676e+000
1.310817e+003,6.553177e+000
1.311781e+003,5.675125e+000
1.312746e+003,5.893997e+000
1.313710e+003,5.910507e+000
1.314674e+003,4.895935e+000
1.315638e+003,4.039017e+000
1.316603e+003,4.418060e+000
1.317567e+003,5.394714e+000
1.318531e+003,5.436005e+000
1.319495e+003,4.271347e+000
1.320459e+003,3.378204e+000
1.321424e+003,3.619202e+000
1.322388e+003,4.477875e+000
1.323352e+003,5.658508e+000
1.324316e+003,7.062347e+000
1.325281e+003,8.014633e+000
1.326245e+003,8.140335e+000
1.327209e+003,7.937042e+000
1.328173e+003,8.253006e+000
1.329138e+003,9.072357e+000
1.330102e+003,9.026489e+000
1.331066e+003,7.646469e+000
1.332030e+003,6.520966e+000
1.332995e+003,5.998123e+000
1.333959e+003,5.502609e+000
1.334923e+003,4.247879e+000
1.335887e+003,2.816528e+000
1.336851e+003,2.704437e+000
1.337816e+003,4.490448e+000
1.338780e+003,6.872726e+000
1.339744e+003,7.934586e+000
1.340708e+003,7.578003e+000
1.341673e+003,7.033768e+000
1.342637e+003,6.323746e+000
1.343601e+003,5.536469e+000
1.344565e+003,4.566360e+000
1.345530e+003,3.957794e+000
1.346494e+003,4.133881e+000
1.347458e+003,4.891510e+000
1.348422e+003,5.822678e+000
1.349386e+003,6.759247e+000
1.350351e+003,7.074982e+000
1.351315e+003,5.955780e+000
1.352279e+003,4.650681e+000
1.353243e+003,5.176193e+000
1.354208e+003,7.102066e+000
1.355172e+003,8.452530e+000
1.356136e+003,8.330948e+000
1.357100e+003,7.575974e+000
1.358065e+003,7.451721e+000
1.359029e+003,7.880188e+000
1.359993e+003,7.147583e+000
1.360957e+003,4.301926e+000
1.361922e+003,2.865143e+000
1.362886e+003,5.099182e+000
1.363850e+003,7.443542e+000
1.364814e+003,7.872604e+000
1.365778e+003,7.063416e+000
1.366743e+003,6.361511e+000
1.367707e+003,6.195450e+000
1.368671e+003,6.020782e+000
1.369635e+003,5.317856e+000
1.370600e+003,4.457428e+000
1.371564e+003,4.494598e+000
1.372528e+003,5.732330e+000
1.373492e+003,6.547775e+000
1.374457e+003,6.492188e+000
1.375421e+003,6.367950e+000
1.376385e+003,6.954483e+000
1.377349e+003,7.667282e+000
1.378313e+003,7.271225e+000
1.379278e+003,5.730499e+000
1.380242e+003,4.692291e+000
1.381206e+003,5.393570e+000
1.382170e+003,6.749878e+000
1.383135e+003,6.745468e+000
1.384099e+003,5.967117e+000
1.385063e+003,6.202026e+000
1.386027e+003,7.602219e+000
1.386992e+003,8.453064e+000
1.387956e+003,7.413391e+000
1.388920e+003,5.727142e+000
1.389884e+003,5.720840e+000
1.390849e+003,7.483353e+000
1.391813e+003,8.806808e+000
1.392777e+003,8.524078e+000
1.393741e+003,8.065002e+000
1.394705e+003,9.106094e+000
1.395670e+003,1.039526e+001
1.396634e+003,1.033513e+001
1.397598e+003,8.931473e+000
1.398562e+003,7.055969e+000
1.399527e+003,5.376740e+000
1.400491e+003,4.518387e+000
1.401455e+003,5.507477e+000
1.402419e+003,8.425919e+000
1.403384e+003,9.931000e+000
1.404348e+003,8.399658e+000
1.405312e+003,7.185287e+000
1.406276e+003,7.443726e+000
1.407240e+003,8.233185e+000
1.408205e+003,8.526047e+000
1.409169e+003,8.342087e+000
1.410133e+003,8.285019e+000
1.411097e+003,8.488525e+000
1.412062e+003,8.330765e+000
1.413026e+003,7.354431e+000
1.413990e+003,6.252502e+000
1.414954e+003,6.418228e+000
1.415919e+003,7.822174e+000
1.416883e+003,8.564819e+000
1.417847e+003,7.807526e+000
1.418811e+003,7.020279e+000
1.419776e+003,7.279266e+000
1.420740e+003,7.919556e+000
1.421704e+003,7.744583e+000
1.422668e+003,6.779144e+000
1.423632e+003,6.331100e+000
1.424597e+003,7.054825e+000
1.425561e+003,8.014938e+000
1.426525e+003,8.231583e+000
1.427489e+003,8.149323e+000
1.428454e+003,8.374374e+000
1.429418e+003,8.906815e+000
1.430382e+003,9.265976e+000
1.431346e+003,9.006256e+000
1.432311e+003,8.375900e+000
1.433275e+003,8.158478e+000
1.434239e+003,8.616165e+000
1.435203e+003,8.761627e+000
1.436167e+003,7.848328e+000
1.437132e+003,7.345184e+000
1.438096e+003,7.979858e+000
1.439060e+003,8.807617e+000
1.440024e+003,9.990112e+000
1.440989e+003,1.111873e+001
1.441953e+003,1.102513e+001
1.442917e+003,9.498184e+000
1.443881e+003,7.973297e+000
1.444846e+003,7.966537e+000
1.445810e+003,9.251556e+000
1.446774e+003,1.048351e+001
1.447738e+003,1.171297e+001
1.448703e+003,1.198433e+001
1.449667e+003,1.046823e+001
1.450631e+003,9.307037e+000
1.451595e+003,9.424911e+000
1.452559e+003,1.005537e+001
1.453524e+003,1.049254e+001
1.454488e+003,1.061877e+001
1.455452e+003,1.052617e+001
1.456416e+003,1.024857e+001
1.457381e+003,9.891617e+000
1.458345e+003,9.605331e+000
1.459309e+003,9.347763e+000
1.460273e+003,9.293274e+000
1.461238e+003,9.913528e+000
1.462202e+003,1.027072e+001
1.463166e+003,9.795944e+000
1.464130e+003,9.439865e+000
1.465094e+003,9.378571e+000
1.466059e+003,9.561691e+000
1.467023e+003,1.064311e+001
1.467987e+003,1.265421e+001
1.468951e+003,1.370451e+001
1.469916e+003,1.259943e+001
1.470880e+003,1.116275e+001
1.471844e+003,1.140213e+001
1.472808e+003,1.240520e+001
1.473773e+003,1.290674e+001
1.474737e+003,1.302496e+001
1.475701e+003,1.305888e+001
1.476665e+003,1.329483e+001
1.477630e+003,1.352762e+001
1.478594e+003,1.303694e+001
1.479558e+003,1.191454e+001
1.480522e+003,1.164211e+001
1.481486e+003,1.277832e+001
1.482451e+003,1.389336e+001
1.483415e+003,1.417741e+001
1.484379e+003,1.427737e+001
1.485343e+003,1.471606e+001
1.486308e+003,1.542410e+001
1.487272e+003,1.622392e+001
1.488236e+003,1.702089e+001
1.489200e+003,1.766232e+001
1.490165e+003,1.791240e+001
1.491129e+003,1.796346e+001
1.492093e+003,1.856015e+001
1.493057e+003,1.990025e+001
1.494021e+003,2.066904e+001
1.494986e+003,2.057213e+001
1.495950e+003,2.041724e+001
1.496914e+003,1.986845e+001
1.497878e+003,1.956865e+001
1.498843e+003,2.038669e+001
1.499807e+003,2.175142e+001
1.500771e+003,2.242004e+001
1.501735e+003,2.215454e+001
1.502700e+003,2.202905e+001
1.503664e+003,2.300975e+001
1.504628e+003,2.473283e+001
1.505592e+003,2.642099e+001
1.506557e+003,2.864914e+001
1.507521e+003,2.955377e+001
1.508485e+003,2.750906e+001
1.509449e+003,2.593738e+001
1.510413e+003,2.544228e+001
1.511378e+003,2.544662e+001
1.512342e+003,2.586499e+001
1.513306e+003,2.647110e+001
1.514270e+003,2.690901e+001
1.515235e+003,2.699535e+001
1.516199e+003,2.672482e+001
1.517163e+003,2.614279e+001
1.518127e+003,2.534882e+001
1.519092e+003,2.441681e+001
1.520056e+003,2.309209e+001
1.521020e+003,2.219505e+001
1.521984e+003,2.189896e+001
1.522948e+003,2.169824e+001
1.523913e+003,2.168497e+001
1.524877e+003,2.184697e+001
1.525841e+003,2.219604e+001
1.526805e+003,2.251772e+001
1.527770e+003,2.242795e+001
1.528734e+003,2.168539e+001
1.529698e+003,2.015587e+001
1.530662e+003,1.768256e+001
1.531627e+003,1.513971e+001
1.532591e+003,1.472829e+001
1.533555e+003,1.678093e+001
1.534519e+003,1.778578e+001
1.535484e+003,1.730545e+001
1.536448e+003,1.645125e+001
1.537412e+003,1.511961e+001
1.538376e+003,1.380292e+001
1.539340e+003,1.314331e+001
1.540305e+003,1.312170e+001
1.541269e+003,1.351259e+001
1.542233e+003,1.410504e+001
1.543197e+003,1.372395e+001
1.544162e+003,1.113887e+001
1.545126e+003,7.833481e+000
1.546090e+003,7.156601e+000
1.547054e+003,8.995056e+000
1.548019e+003,1.058525e+001
1.548983e+003,1.107755e+001
1.549947e+003,1.116953e+001
1.550911e+003,1.116382e+001
1.551875e+003,1.117195e+001
1.552840e+003,1.177605e+001
1.553804e+003,1.280695e+001
1.554768e+003,1.267311e+001
1.555732e+003,1.071346e+001
1.556697e+003,9.117035e+000
1.557661e+003,9.442627e+000
1.558625e+003,1.069403e+001
1.559589e+003,1.168803e+001
1.560554e+003,1.246635e+001
1.561518e+003,1.312498e+001
1.562482e+003,1.366081e+001
1.563446e+003,1.358037e+001
1.564411e+003,1.223116e+001
1.565375e+003,1.071761e+001
1.566339e+003,1.036459e+001
1.567303e+003,1.083934e+001
1.568267e+003,1.104980e+001
1.569232e+003,1.080765e+001
1.570196e+003,1.049168e+001
1.571160e+003,1.019107e+001
1.572124e+003,9.966797e+000
1.573089e+003,1.023570e+001
1.574053e+003,1.077231e+001
1.575017e+003,1.075987e+001
1.575981e+003,1.013243e+001
1.576946e+003,1.003937e+001
1.577910e+003,1.113676e+001
1.578874e+003,1.226900e+001
1.579838e+003,1.244633e+001
1.580802e+003,1.212599e+001
1.581767e+003,1.173943e+001
1.582731e+003,1.100536e+001
1.583695e+003,1.090144e+001
1.584659e+003,1.230902e+001
1.585624e+003,1.333992e+001
1.586588e+003,1.251097e+001
1.587552e+003,1.112233e+001
1.588516e+003,9.795639e+000
1.589481e+003,8.790527e+000
1.590445e+003,9.301422e+000
1.591409e+003,1.187270e+001
1.592373e+003,1.437085e+001
1.593338e+003,1.488434e+001
1.594302e+003,1.403821e+001
1.595266e+003,1.297966e+001
1.596230e+003,1.173386e+001
1.597194e+003,1.102785e+001
1.598159e+003,1.094400e+001
1.599123e+003,1.114496e+001
1.600087e+003,1.186324e+001
1.601051e+003,1.257330e+001
1.602016e+003,1.271223e+001
1.602980e+003,1.235040e+001
1.603944e+003,1.185304e+001
1.604908e+003,1.147218e+001
1.605873e+003,1.128296e+001
1.606837e+003,1.122829e+001
1.607801e+003,1.146477e+001
1.608765e+003,1.227046e+001
1.609729e+003,1.332346e+001
1.610694e+003,1.370992e+001
1.611658e+003,1.338589e+001
1.612622e+003,1.308183e+001
1.613586e+003,1.322568e+001
1.614551e+003,1.364972e+001
1.615515e+003,1.393036e+001
1.616479e+003,1.404068e+001
1.617443e+003,1.426892e+001
1.618408e+003,1.459082e+001
1.619372e+003,1.456485e+001
1.620336e+003,1.404265e+001
1.621300e+003,1.336270e+001
1.622265e+003,1.273062e+001
1.623229e+003,1.210298e+001
1.624193e+003,1.138013e+001
1.625157e+003,1.049635e+001
1.626121e+003,1.017906e+001
1.627086e+003,1.095441e+001
1.628050e+003,1.157501e+001
1.629014e+003,1.055035e+001
1.629978e+003,9.462753e+000
1.630943e+003,1.032924e+001
1.631907e+003,1.235014e+001
1.632871e+003,1.353281e+001
1.633835e+003,1.352568e+001
1.634800e+003,1.309882e+001
1.635764e+003,1.256651e+001
1.636728e+003,1.214989e+001
1.637692e+003,1.172020e+001
1.638656e+003,1.131055e+001
1.639621e+003,1.243611e+001
1.640585e+003,1.557495e+001
1.641549e+003,1.737535e+001
1.642513e+003,1.636510e+001
1.643478e+003,1.486603e+001
1.644442e+003,1.452469e+001
1.645406e+003,1.460393e+001
1.646370e+003,1.414365e+001
1.647335e+003,1.314984e+001
1.648299e+003,1.239267e+001
1.649263e+003,1.220296e+001
1.650227e+003,1.226569e+001
1.651192e+003,1.248692e+001
1.652156e+003,1.273251e+001
1.653120e+003,1.266086e+001
1.654084e+003,1.235707e+001
1.655048e+003,1.235065e+001
1.656013e+003,1.278333e+001
1.656977e+003,1.311659e+001
1.657941e+003,1.292223e+001
1.658905e+003,1.230501e+001
1.659870e+003,1.143051e+001
1.660834e+003,1.070041e+001
1.661798e+003,1.063725e+001
1.662762e+003,1.117416e+001
1.663727e+003,1.192664e+001
1.664691e+003,1.295007e+001
1.665655e+003,1.387871e+001
1.666619e+003,1.423174e+001
1.667583e+003,1.448712e+001
1.668548e+003,1.575185e+001
1.669512e+003,1.772368e+001
1.670476e+003,1.826294e+001
1.671440e+003,1.669844e+001
1.672405e+003,1.539581e+001
1.673369e+003,1.615181e+001
1.674333e+003,1.780632e+001
1.675297e+003,1.822557e+001
1.676262e+003,1.762643e+001
1.677226e+003,1.737418e+001
1.678190e+003,1.766570e+001
1.679154e+003,1.798438e+001
1.680119e+003,1.829135e+001
1.681083e+003,1.835541e+001
1.682047e+003,1.785292e+001
1.683011e+003,1.714482e+001
1.683975e+003,1.684976e+001
1.684940e+003,1.709100e+001
1.685904e+003,1.767844e+001
1.686868e+003,1.848141e+001
1.687832e+003,1.939349e+001
1.688797e+003,2.029271e+001
1.689761e+003,2.086868e+001
1.690725e+003,2.078833e+001
1.691689e+003,2.013763e+001
1.692654e+003,1.928716e+001
1.693618e+003,1.764412e+001
1.694582e+003,1.720145e+001
1.695546e+003,1.868069e+001
1.696510e+003,2.052594e+001
1.697475e+003,2.231436e+001
1.698439e+003,2.380826e+001
1.699403e+003,2.432283e+001
1.700367e+003,2.409271e+001
1.701332e+003,2.437265e+001
1.702296e+003,2.572147e+001
1.703260e+003,2.715425e+001
1.704224e+003,2.742178e+001
1.705189e+003,2.689061e+001
1.706153e+003,2.759473e+001
1.707117e+003,3.003973e+001
1.708081e+003,3.123540e+001
1.709046e+003,3.125952e+001
1.710010e+003,3.144315e+001
1.710974e+003,3.140388e+001
1.711938e+003,3.128264e+001
1.712902e+003,3.114717e+001
1.713867e+003,3.089786e+001
1.714831e+003,3.075839e+001
1.715795e+003,3.083958e+001
1.716759e+003,3.074112e+001
1.717724e+003,3.021097e+001
1.718688e+003,2.986804e+001
1.719652e+003,3.054436e+001
1.720616e+003,3.175269e+001
1.721581e+003,3.174797e+001
1.722545e+003,3.023283e+001
1.723509e+003,2.951945e+001
1.724473e+003,3.005571e+001
1.725438e+003,3.088922e+001
1.726402e+003,3.220107e+001
1.727366e+003,3.294708e+001
1.728330e+003,3.223685e+001
1.729294e+003,3.101645e+001
1.730259e+003,3.029475e+001
1.731223e+003,3.027626e+001
1.732187e+003,3.108139e+001
1.733151e+003,3.268700e+001
1.734116e+003,3.391939e+001
1.735080e+003,3.371954e+001
1.736044e+003,3.264780e+001
1.737008e+003,3.123938e+001
1.737973e+003,2.948228e+001
1.738937e+003,2.911287e+001
1.739901e+003,3.067464e+001
1.740865e+003,3.180147e+001
1.741829e+003,3.131462e+001
1.742794e+003,3.065025e+001
1.743758e+003,3.121884e+001
1.744722e+003,3.237482e+001
1.745686e+003,3.317812e+001
1.746651e+003,3.357008e+001
1.747615e+003,3.364487e+001
1.748579e+003,3.328258e+001
1.749543e+003,3.277936e+001
1.750508e+003,3.262238e+001
1.751472e+003,3.236055e+001
1.752436e+003,3.058434e+001
1.753400e+003,2.832344e+001
1.754365e+003,2.898235e+001
1.755329e+003,3.250919e+001
1.756293e+003,3.418265e+001
1.757257e+003,3.187129e+001
1.758221e+003,2.878842e+001
1.759186e+003,2.802226e+001
1.760150e+003,2.907057e+001
1.761114e+003,3.035782e+001
1.762078e+003,3.162508e+001
1.763043e+003,3.205768e+001
1.764007e+003,3.093637e+001
1.764971e+003,2.993974e+001
1.765935e+003,2.997292e+001
1.766900e+003,3.026491e+001
1.767864e+003,3.007443e+001
1.768828e+003,2.983051e+001
1.769792e+003,3.028009e+001
1.770756e+003,3.119955e+001
1.771721e+003,3.162495e+001
1.772685e+003,3.115179e+001
1.773649e+003,3.043648e+001
1.774613e+003,3.025604e+001
1.775578e+003,3.056224e+001
1.776542e+003,3.089160e+001
1.777506e+003,3.115726e+001
1.778470e+003,3.072652e+001
1.779435e+003,2.918521e+001
1.780399e+003,2.777933e+001
1.781363e+003,2.711423e+001
1.782327e+003,2.654347e+001
1.783292e+003,2.516609e+001
1.784256e+003,2.378107e+001
1.785220e+003,2.335941e+001
1.786184e+003,2.376012e+001
1.787148e+003,2.459422e+001
1.788113e+003,2.552121e+001
1.789077e+003,2.556221e+001
1.790041e+003,2.388091e+001
1.791005e+003,2.224809e+001
1.791970e+003,2.320761e+001
1.792934e+003,2.556912e+001
1.793898e+003,2.626932e+001
1.794862e+003,2.553543e+001
1.795827e+003,2.577261e+001
1.796791e+003,2.744370e+001
1.797755e+003,2.813954e+001
1.798719e+003,2.642799e+001
1.799683e+003,2.438448e+001
1.800648e+003,2.424603e+001
1.801612e+003,2.521364e+001
1.802576e+003,2.507489e+001
1.803540e+003,2.373955e+001
1.804505e+003,2.291127e+001
1.805469e+003,2.356987e+001
1.806433e+003,2.436375e+001
1.807397e+003,2.454807e+001
1.808362e+003,2.455449e+001
1.809326e+003,2.461415e+001
1.810290e+003,2.481944e+001
1.811254e+003,2.554196e+001
1.812219e+003,2.651015e+001
1.813183e+003,2.676401e+001
1.814147e+003,2.589528e+001
1.815111e+003,2.449126e+001
1.816075e+003,2.329509e+001
1.817040e+003,2.263385e+001
1.818004e+003,2.268666e+001
1.818968e+003,2.341864e+001
1.819932e+003,2.445137e+001
1.820897e+003,2.568657e+001
1.821861e+003,2.574844e+001
1.822825e+003,2.352539e+001
1.823789e+003,2.205051e+001
1.824754e+003,2.411841e+001
1.825718e+003,2.629811e+001
1.826682e+003,2.483603e+001
1.827646e+003,2.182928e+001
1.828610e+003,2.146460e+001
1.829575e+003,2.383080e+001
1.830539e+003,2.553891e+001
1.831503e+003,2.516895e+001
1.832467e+003,2.422966e+001
1.833432e+003,2.375632e+001
1.834396e+003,2.341434e+001
1.835360e+003,2.269310e+001
1.836324e+003,2.215535e+001
1.837289e+003,2.321169e+001
1.838253e+003,2.540503e+001
1.839217e+003,2.575162e+001
1.840181e+003,2.319008e+001
1.841146e+003,2.046848e+001
1.842110e+003,1.988495e+001
1.843074e+003,2.074548e+001
1.844038e+003,2.148242e+001
1.845002e+003,2.203998e+001
1.845967e+003,2.298592e+001
1.846931e+003,2.508934e+001
1.847895e+003,2.625856e+001
1.848859e+003,2.454108e+001
1.849824e+003,2.366475e+001
1.850788e+003,2.668648e+001
1.851752e+003,2.966510e+001
1.852716e+003,2.923975e+001
1.853681e+003,2.725543e+001
1.854645e+003,2.619893e+001
1.855609e+003,2.641263e+001
1.856573e+003,2.768280e+001
1.857537e+003,2.967938e+001
1.858502e+003,3.020740e+001
1.859466e+003,2.673599e+001
1.860430e+003,2.210428e+001
1.861394e+003,2.197319e+001
1.862359e+003,2.537103e+001
1.863323e+003,2.740337e+001
1.864287e+003,2.771021e+001
1.865251e+003,2.735605e+001
1.866216e+003,2.669469e+001
1.867180e+003,2.649304e+001
1.868144e+003,2.716771e+001
1.869108e+003,2.775050e+001
1.870073e+003,2.711887e+001
1.871037e+003,2.570296e+001
1.872001e+003,2.494377e+001
1.872965e+003,2.503189e+001
1.873929e+003,2.517332e+001
1.874894e+003,2.500676e+001
1.875858e+003,2.464874e+001
1.876822e+003,2.415903e+001
1.877786e+003,2.388988e+001
1.878751e+003,2.419156e+001
1.879715e+003,2.477505e+001
1.880679e+003,2.494321e+001
1.881643e+003,2.488266e+001
1.882608e+003,2.571164e+001
1.883572e+003,2.763167e+001
1.884536e+003,2.916068e+001
1.885500e+003,2.907523e+001
1.886464e+003,2.794928e+001
1.887429e+003,2.671913e+001
1.888393e+003,2.576718e+001
1.889357e+003,2.635854e+001
1.890321e+003,2.850127e+001
1.891286e+003,2.960530e+001
1.892250e+003,2.902110e+001
1.893214e+003,2.807599e+001
1.894178e+003,2.736984e+001
1.895143e+003,2.709998e+001
1.896107e+003,2.738988e+001
1.897071e+003,2.782016e+001
1.898035e+003,2.748260e+001
1.899000e+003,2.622836e+001
1.899964e+003,2.546214e+001
1.900928e+003,2.629211e+001
1.901892e+003,2.737177e+001
1.902856e+003,2.804414e+001
1.903821e+003,2.839664e+001
1.904785e+003,2.816136e+001
1.905749e+003,2.757385e+001
1.906713e+003,2.717882e+001
1.907678e+003,2.713577e+001
1.908642e+003,2.723401e+001
1.909606e+003,2.732494e+001
1.910570e+003,2.757056e+001
1.911535e+003,2.805470e+001
1.912499e+003,2.815605e+001
1.913463e+003,2.692940e+001
1.914427e+003,2.503615e+001
1.915391e+003,2.490631e+001
1.916356e+003,2.648909e+001
1.917320e+003,2.653311e+001
1.918284e+003,2.491397e+001
1.919248e+003,2.401373e+001
1.920213e+003,2.393488e+001
1.921177e+003,2.439543e+001
1.922141e+003,2.583807e+001
1.923105e+003,2.726355e+001
1.924070e+003,2.754675e+001
1.925034e+003,2.694295e+001
1.925998e+003,2.577176e+001
1.926962e+003,2.396396e+001
1.927927e+003,2.390234e+001
1.928891e+003,2.773349e+001
1.929855e+003,2.977258e+001
1.930819e+003,2.746674e+001
1.931783e+003,2.497249e+001
1.932748e+003,2.443311e+001
1.933712e+003,2.471524e+001
1.934676e+003,2.453140e+001
1.935640e+003,2.422516e+001
1.936605e+003,2.490167e+001
1.937569e+003,2.625191e+001
1.938533e+003,2.673373e+001
1.939497e+003,2.592020e+001
1.940462e+003,2.484778e+001
1.941426e+003,2.388228e+001
1.942390e+003,2.313516e+001
1.943354e+003,2.313899e+001
1.944318e+003,2.351698e+001
1.945283e+003,2.396602e+001
1.946247e+003,2.468855e+001
1.947211e+003,2.445851e+001
1.948175e+003,2.295569e+001
1.949140e+003,2.161324e+001
1.950104e+003,2.085945e+001
1.951068e+003,2.067888e+001
1.952032e+003,2.147194e+001
1.952997e+003,2.295389e+001
1.953961e+003,2.403595e+001
1.954925e+003,2.474850e+001
1.955889e+003,2.434998e+001
1.956854e+003,2.143597e+001
1.957818e+003,2.017082e+001
1.958782e+003,2.214252e+001
1.959746e+003,2.416969e+001
1.960710e+003,2.498567e+001
1.961675e+003,2.507991e+001
1.962639e+003,2.526550e+001
1.963603e+003,2.525244e+001
1.964567e+003,2.392088e+001
1.965532e+003,2.165894e+001
1.966496e+003,2.066339e+001
1.967460e+003,2.168546e+001
1.968424e+003,2.245209e+001
1.969389e+003,2.119182e+001
1.970353e+003,1.980753e+001
1.971317e+003,2.020912e+001
1.972281e+003,2.118019e+001
1.973245e+003,2.122420e+001
1.974210e+003,2.061217e+001
1.975174e+003,1.992188e+001
1.976138e+003,1.926445e+001
1.977102e+003,1.837987e+001
1.978067e+003,1.722389e+001
1.979031e+003,1.717615e+001
1.979995e+003,1.965497e+001
1.980959e+003,2.271950e+001
1.981924e+003,2.258922e+001
1.982888e+003,1.996561e+001
1.983852e+003,1.854951e+001
1.984816e+003,1.821593e+001
1.985781e+003,1.933490e+001
1.986745e+003,2.272691e+001
1.987709e+003,2.439728e+001
1.988673e+003,2.208490e+001
1.989637e+003,1.933694e+001
1.990602e+003,1.857394e+001
1.991566e+003,1.892152e+001
1.992530e+003,1.972647e+001
1.993494e+003,2.102789e+001
1.994459e+003,2.124727e+001
1.995423e+003,1.969461e+001
1.996387e+003,1.870779e+001
1.997351e+003,1.854079e+001
1.998316e+003,1.831367e+001
1.999280e+003,1.774638e+001
2.000244e+003,1.783775e+001
2.001208e+003,1.953587e+001
2.002172e+003,2.160526e+001
2.003137e+003,2.270860e+001
2.004101e+003,2.302995e+001
2.005065e+003,2.331871e+001
2.006029e+003,2.384148e+001
2.006994e+003,2.472551e+001
2.007958e+003,2.602151e+001
2.008922e+003,2.632874e+001
2.009886e+003,2.406961e+001
2.010851e+003,2.175330e+001
2.011815e+003,2.187215e+001
2.012779e+003,2.302362e+001
2.013743e+003,2.346465e+001
2.014708e+003,2.305270e+001
2.015672e+003,2.171677e+001
2.016636e+003,1.986302e+001
2.017600e+003,1.884047e+001
2.018564e+003,1.912592e+001
2.019529e+003,1.964497e+001
2.020493e+003,1.952547e+001
2.021457e+003,1.946558e+001
2.022421e+003,2.067645e+001
2.023386e+003,2.270740e+001
2.024350e+003,2.381825e+001
2.025314e+003,2.405878e+001
2.026278e+003,2.378128e+001
2.027243e+003,2.306488e+001
2.028207e+003,2.219888e+001
2.029171e+003,2.108842e+001
2.030135e+003,2.038254e+001
2.031099e+003,2.059521e+001
2.032064e+003,2.125751e+001
2.033028e+003,2.164473e+001
2.033992e+003,2.164815e+001
2.034956e+003,2.201370e+001
2.035921e+003,2.352199e+001
2.036885e+003,2.465944e+001
2.037849e+003,2.530872e+001
2.038813e+003,2.595917e+001
2.039778e+003,2.578772e+001
2.040742e+003,2.502946e+001
2.041706e+003,2.434471e+001
2.042670e+003,2.356099e+001
2.043635e+003,2.204805e+001
2.044599e+003,2.041878e+001
2.045563e+003,1.973770e+001
2.046527e+003,2.004723e+001
2.047491e+003,2.067738e+001
2.048456e+003,2.167079e+001
2.049420e+003,2.273553e+001
2.050384e+003,2.387933e+001
2.051348e+003,2.410402e+001
2.052313e+003,2.222299e+001
2.053277e+003,2.052930e+001
2.054241e+003,2.111420e+001
2.055205e+003,2.295308e+001
2.056170e+003,2.469444e+001
2.057134e+003,2.566367e+001
2.058098e+003,2.527303e+001
2.059062e+003,2.391689e+001
2.060027e+003,2.347380e+001
2.060991e+003,2.501044e+001
2.061955e+003,2.613782e+001
2.062919e+003,2.385681e+001
2.063884e+003,2.059341e+001
2.064848e+003,1.928734e+001
2.065812e+003,1.971577e+001
2.066776e+003,2.179599e+001
2.067740e+003,2.441934e+001
2.068705e+003,2.498486e+001
2.069669e+003,2.348409e+001
2.070633e+003,2.244241e+001
2.071597e+003,2.289438e+001
2.072562e+003,2.332904e+001
2.073526e+003,2.264851e+001
2.074490e+003,2.183173e+001
2.075454e+003,2.200992e+001
2.076418e+003,2.267250e+001
2.077383e+003,2.267230e+001
2.078347e+003,2.179662e+001
2.079311e+003,2.009607e+001
2.080275e+003,1.820386e+001
2.081240e+003,1.835486e+001
2.082204e+003,2.092821e+001
2.083168e+003,2.248676e+001
2.084132e+003,2.072510e+001
2.085096e+003,1.818390e+001
2.086061e+003,1.833394e+001
2.087025e+003,2.012851e+001
2.087989e+003,1.968448e+001
2.088953e+003,1.688739e+001
2.089918e+003,1.677319e+001
2.090882e+003,2.035921e+001
2.091846e+003,2.192706e+001
2.092810e+003,2.019322e+001
2.093775e+003,1.878496e+001
2.094739e+003,1.904929e+001
2.095703e+003,1.920583e+001
2.096667e+003,1.797328e+001
2.097632e+003,1.612816e+001
2.098596e+003,1.439423e+001
2.099560e+003,1.330989e+001
2.100524e+003,1.469832e+001
2.101489e+003,1.906032e+001
2.102453e+003,2.127541e+001
2.103417e+003,2.035078e+001
2.104381e+003,1.936649e+001
2.105345e+003,1.771854e+001
2.106310e+003,1.725098e+001
2.107274e+003,1.926498e+001
2.108238e+003,2.195265e+001
2.109202e+003,2.472292e+001
2.110167e+003,2.673552e+001
2.111131e+003,2.635889e+001
2.112095e+003,2.407436e+001
2.113059e+003,2.281128e+001
2.114023e+003,2.371440e+001
2.114988e+003,2.381770e+001
2.115952e+003,2.047801e+001
2.116916e+003,1.776630e+001
2.117880e+003,1.734077e+001
2.118845e+003,1.740904e+001
2.119809e+003,1.796118e+001
2.120773e+003,1.859032e+001
2.121737e+003,1.841296e+001
2.122702e+003,1.758368e+001
2.123666e+003,1.635286e+001
2.124630e+003,1.498755e+001
2.125594e+003,1.448875e+001
2.126559e+003,1.524182e+001
2.127523e+003,1.572733e+001
2.128487e+003,1.530670e+001
2.129451e+003,1.483894e+001
2.130416e+003,1.410504e+001
2.131380e+003,1.379709e+001
2.132344e+003,1.517661e+001
2.133308e+003,1.679350e+001
2.134272e+003,1.666759e+001
2.135237e+003,1.535225e+001
2.136201e+003,1.469482e+001
2.137165e+003,1.476471e+001
2.138129e+003,1.356096e+001
2.139094e+003,1.050742e+001
2.140058e+003,9.330627e+000
2.141022e+003,1.345718e+001
2.141986e+003,1.718791e+001
2.142950e+003,1.493640e+001
2.143915e+003,1.102765e+001
2.144879e+003,9.716492e+000
2.145843e+003,9.899033e+000
2.146807e+003,1.012651e+001
2.147772e+003,1.035159e+001
2.148736e+003,1.055438e+001
2.149700e+003,1.062909e+001
2.150664e+003,1.080562e+001
2.151629e+003,1.124026e+001
2.152593e+003,1.162511e+001
2.153557e+003,1.177583e+001
2.154521e+003,1.211765e+001
2.155486e+003,1.298448e+001
2.156450e+003,1.392580e+001
2.157414e+003,1.454765e+001
2.158378e+003,1.498578e+001
2.159343e+003,1.563104e+001
2.160307e+003,1.623494e+001
2.161271e+003,1.573442e+001
2.162235e+003,1.412874e+001
2.163199e+003,1.279219e+001
2.164164e+003,1.239917e+001
2.165128e+003,1.225461e+001
2.166092e+003,1.177161e+001
2.167056e+003,1.139435e+001
2.168021e+003,1.172748e+001
2.168985e+003,1.207051e+001
2.169949e+003,1.140996e+001
2.170913e+003,1.022034e+001
2.171877e+003,9.428986e+000
2.172842e+003,9.179306e+000
2.173806e+003,9.313004e+000
2.174770e+003,9.537170e+000
2.175734e+003,9.141037e+000
2.176699e+003,7.853302e+000
2.177663e+003,6.549301e+000
2.178627e+003,6.054062e+000
2.179591e+003,6.140503e+000
2.180556e+003,6.277725e+000
2.181520e+003,6.496323e+000
2.182484e+003,7.815491e+000
2.183448e+003,9.505936e+000
2.184413e+003,8.577942e+000
2.185377e+003,5.673553e+000
2.186341e+003,4.222839e+000
2.187305e+003,4.740860e+000
2.188270e+003,5.648407e+000
2.189234e+003,6.304092e+000
2.190198e+003,6.911011e+000
2.191162e+003,7.400970e+000
2.192126e+003,7.492661e+000
2.193091e+003,7.285217e+000
2.194055e+003,6.719040e+000
2.195019e+003,4.809570e+000
2.195983e+003,2.569122e+000
2.196948e+003,2.920044e+000
2.197912e+003,5.319382e+000
2.198876e+003,7.291260e+000
2.199840e+003,8.192902e+000
2.200804e+003,7.943329e+000
2.201769e+003,6.666245e+000
2.202733e+003,5.495056e+000
2.203697e+003,5.392639e+000
2.204661e+003,5.903595e+000
2.205626e+003,6.550858e+000
2.206590e+003,6.987411e+000
2.207554e+003,6.019409e+000
2.208518e+003,4.055679e+000
2.209483e+003,2.288361e+000
2.210447e+003,1.245514e+000
2.211411e+003,2.702469e+000
2.212375e+003,6.066299e+000
2.213340e+003,7.440140e+000
2.214304e+003,5.884857e+000
2.215268e+003,4.575577e+000
2.216232e+003,5.323959e+000
2.217197e+003,6.425064e+000
2.218161e+003,6.440384e+000
2.219125e+003,5.621460e+000
2.220089e+003,3.609970e+000
2.221053e+003,1.619690e+000
2.222018e+003,2.395233e+000
2.222982e+003,4.518784e+000
2.223946e+003,4.635529e+000
2.224910e+003,3.253799e+000
2.225875e+003,3.074921e+000
2.226839e+003,4.513428e+000
2.227803e+003,6.096344e+000
2.228767e+003,6.973038e+000
2.229731e+003,7.126862e+000
2.230696e+003,6.669296e+000
2.231660e+003,5.489960e+000
2.232624e+003,2.663895e+000
2.233588e+003,0.000000e+000
2.234553e+003,6.911011e-001
2.235517e+003,3.143433e+000
2.236481e+003,4.352814e+000
2.237445e+003,4.242874e+000
2.238410e+003,3.872177e+000
2.239374e+003,3.778412e+000
2.240338e+003,4.374313e+000
2.241302e+003,5.617462e+000
2.242267e+003,6.370895e+000
2.243231e+003,5.803024e+000
2.244195e+003,5.175339e+000
2.245159e+003,5.767426e+000
2.246124e+003,6.723740e+000
2.247088e+003,7.580154e+000
2.248052e+003,7.760757e+000
2.249016e+003,5.805786e+000
2.249980e+003,3.269257e+000
2.250945e+003,3.068024e+000
2.251909e+003,4.873871e+000
2.252873e+003,6.418518e+000
2.253837e+003,7.009735e+000
2.254802e+003,7.607071e+000
2.255766e+003,8.829086e+000
2.256730e+003,9.697983e+000
2.257694e+003,9.374756e+000
2.258658e+003,8.339371e+000
2.259623e+003,6.323502e+000
2.260587e+003,4.486465e+000
2.261551e+003,4.437286e+000
2.262515e+003,4.895111e+000
2.263480e+003,3.567627e+000
2.264444e+003,1.886185e+000
2.265408e+003,3.183884e+000
2.266372e+003,6.769623e+000
2.267337e+003,8.780472e+000
2.268301e+003,8.200516e+000
2.269265e+003,6.898514e+000
2.270229e+003,5.846634e+000
2.271194e+003,5.136307e+000
2.272158e+003,3.139313e+000
2.273122e+003,2.023880e+000
2.274086e+003,4.654114e+000
2.275051e+003,7.504410e+000
2.276015e+003,7.806870e+000
2.276979e+003,6.870483e+000
2.277943e+003,5.764069e+000
2.278907e+003,4.883896e+000
2.279872e+003,4.925537e+000
2.280836e+003,5.796188e+000
2.281800e+003,6.974869e+000
2.282764e+003,8.982544e+000
2.283729e+003,1.042265e+001
2.284693e+003,1.138560e+001
2.285657e+003,1.173457e+001
2.286621e+003,9.971558e+000
2.287585e+003,8.273987e+000
2.288550e+003,8.065109e+000
2.289514e+003,8.728699e+000
2.290478e+003,1.000623e+001
2.291442e+003,1.156526e+001
2.292407e+003,1.267099e+001
2.293371e+003,1.328844e+001
2.294335e+003,1.411443e+001
2.295299e+003,1.539301e+001
2.296264e+003,1.535515e+001
2.297228e+003,1.358586e+001
2.298192e+003,1.181859e+001
2.299156e+003,9.977768e+000
2.300121e+003,9.276276e+000
2.301085e+003,1.012772e+001
2.302049e+003,1.084610e+001
2.303013e+003,1.039169e+001
2.303978e+003,1.033243e+001
2.304942e+003,1.256831e+001
2.305906e+003,1.556430e+001
2.306870e+003,1.579822e+001
2.307834e+003,1.369823e+001
2.308799e+003,1.346506e+001
2.309763e+003,1.544176e+001
2.310727e+003,1.659875e+001
2.311691e+003,1.658139e+001
2.312656e+003,1.682605e+001
2.313620e+003,1.762883e+001
2.314584e+003,1.770667e+001
2.315548e+003,1.658990e+001
2.316512e+003,1.576810e+001
2.317477e+003,1.642332e+001
2.318441e+003,1.839987e+001
2.319405e+003,2.137903e+001
2.320369e+003,2.440105e+001
2.321334e+003,2.492053e+001
2.322298e+003,2.378859e+001
2.323262e+003,2.496185e+001
2.324226e+003,2.819797e+001
2.325191e+003,3.135345e+001
2.326155e+003,3.413075e+001
2.327119e+003,3.762943e+001
2.328083e+003,4.133299e+001
2.329048e+003,4.232278e+001
2.330012e+003,3.999762e+001
2.330976e+003,3.718445e+001
2.331940e+003,3.517255e+001
2.332905e+003,3.398331e+001
2.333869e+003,3.450090e+001
2.334833e+003,3.583981e+001
2.335797e+003,3.747682e+001
2.336761e+003,3.903694e+001
2.337726e+003,3.953929e+001
2.338690e+003,3.934019e+001
2.339654e+003,3.921288e+001
2.340618e+003,3.953510e+001
2.341583e+003,4.035730e+001
2.342547e+003,4.184358e+001
2.343511e+003,4.467996e+001
2.344475e+003,4.895404e+001
2.345439e+003,5.182199e+001
2.346404e+003,5.171231e+001
2.347368e+003,5.097038e+001
2.348332e+003,4.959772e+001
2.349296e+003,4.944801e+001
2.350261e+003,5.191747e+001
2.351225e+003,5.519197e+001
2.352189e+003,5.796727e+001
2.353153e+003,6.043503e+001
2.354118e+003,6.311963e+001
2.355082e+003,6.565492e+001
2.356046e+003,6.737738e+001
2.357010e+003,6.866432e+001
2.357975e+003,7.052809e+001
2.358939e+003,7.323763e+001
2.359903e+003,7.488522e+001
2.360867e+003,7.434706e+001
2.361832e+003,7.440373e+001
2.362796e+003,7.594218e+001
2.363760e+003,7.843336e+001
2.364724e+003,8.203055e+001
2.365688e+003,8.609509e+001
2.366653e+003,8.986340e+001
2.367617e+003,9.252054e+001
2.368581e+003,9.350267e+001
2.369545e+003,9.377698e+001
2.370510e+003,9.511404e+001
2.371474e+003,9.748012e+001
2.372438e+003,1.004655e+002
2.373402e+003,1.036565e+002
2.374366e+003,1.054207e+002
2.375331e+003,1.061197e+002
2.376295e+003,1.076762e+002
2.377259e+003,1.101001e+002
2.378223e+003,1.116515e+002
2.379188e+003,1.120555e+002
2.380152e+003,1.132421e+002
2.381116e+003,1.162262e+002
2.382080e+003,1.195983e+002
2.383045e+003,1.225544e+002
2.384009e+003,1.243627e+002
2.384973e+003,1.236104e+002
2.385937e+003,1.225347e+002
2.386902e+003,1.236240e+002
2.387866e+003,1.255789e+002
2.388830e+003,1.262734e+002
2.389794e+003,1.263292e+002
2.390759e+003,1.274901e+002
2.391723e+003,1.290650e+002
2.392687e+003,1.288171e+002
2.393651e+003,1.271820e+002
2.394615e+003,1.279552e+002
2.395580e+003,1.326444e+002
2.396544e+003,1.350791e+002
2.397508e+003,1.325715e+002
2.398472e+003,1.305490e+002
2.399437e+003,1.299783e+002
2.400401e+003,1.301735e+002
2.401365e+003,1.308673e+002
2.402329e+003,1.319865e+002
2.403293e+003,1.337242e+002
2.404258e+003,1.353730e+002
2.405222e+003,1.364905e+002
2.406186e+003,1.369913e+002
2.407150e+003,1.359651e+002
2.408115e+003,1.338574e+002
2.409079e+003,1.343674e+002
2.410043e+003,1.373288e+002
2.411007e+003,1.398845e+002
2.411972e+003,1.420061e+002
2.412936e+003,1.434832e+002
2.413900e+003,1.441203e+002
2.414864e+003,1.439189e+002
2.415829e+003,1.432809e+002
2.416793e+003,1.431070e+002
2.417757e+003,1.436539e+002
2.418721e+003,1.445123e+002
2.419686e+003,1.455664e+002
2.420650e+003,1.466511e+002
2.421614e+003,1.473220e+002
2.422578e+003,1.480054e+002
2.423542e+003,1.493771e+002
2.424507e+003,1.506017e+002
2.425471e+003,1.511065e+002
2.426435e+003,1.511909e+002
2.427399e+003,1.504533e+002
2.428364e+003,1.492347e+002
2.429328e+003,1.489098e+002
2.430292e+003,1.497068e+002
2.431256e+003,1.504743e+002
2.432220e+003,1.509864e+002
2.433185e+003,1.509599e+002
2.434149e+003,1.494246e+002
2.435113e+003,1.483075e+002
2.436077e+003,1.484419e+002
2.437042e+003,1.478558e+002
2.438006e+003,1.457226e+002
2.438970e+003,1.438159e+002
2.439934e+003,1.429837e+002
2.440899e+003,1.424390e+002
2.441863e+003,1.416645e+002
2.442827e+003,1.410493e+002
2.443791e+003,1.408905e+002
2.444756e+003,1.407261e+002
2.445720e+003,1.397686e+002
2.446684e+003,1.382279e+002
2.447648e+003,1.372522e+002
2.448613e+003,1.365217e+002
2.449577e+003,1.342351e+002
2.450541e+003,1.309499e+002
2.451505e+003,1.290127e+002
2.452469e+003,1.286257e+002
2.453434e+003,1.285999e+002
2.454398e+003,1.281400e+002
2.455362e+003,1.272087e+002
2.456326e+003,1.265134e+002
2.457291e+003,1.253869e+002
2.458255e+003,1.216048e+002
2.459219e+003,1.188733e+002
2.460183e+003,1.200459e+002
2.461147e+003,1.207704e+002
2.462112e+003,1.184590e+002
2.463076e+003,1.163589e+002
2.464040e+003,1.169121e+002
2.465004e+003,1.179554e+002
2.465969e+003,1.178794e+002
2.466933e+003,1.169799e+002
2.467897e+003,1.143698e+002
2.468861e+003,1.103683e+002
2.469826e+003,1.102562e+002
2.470790e+003,1.149715e+002
2.471754e+003,1.151841e+002
2.472718e+003,1.106437e+002
2.473683e+003,1.091634e+002
2.474647e+003,1.110017e+002
2.475611e+003,1.104552e+002
2.476575e+003,1.067436e+002
2.477540e+003,1.044128e+002
2.478504e+003,1.050949e+002
2.479468e+003,1.058142e+002
2.480432e+003,1.046049e+002
2.481396e+003,1.028905e+002
2.482361e+003,1.019740e+002
2.483325e+003,1.019650e+002
2.484289e+003,1.032960e+002
2.485253e+003,1.041867e+002
2.486218e+003,1.024990e+002
2.487182e+003,1.001609e+002
2.488146e+003,9.967789e+001
2.489110e+003,1.001255e+002
2.490074e+003,9.966660e+001
2.491039e+003,9.878778e+001
2.492003e+003,9.910834e+001
2.492967e+003,1.001200e+002
2.493931e+003,9.898427e+001
2.494896e+003,9.504543e+001
2.495860e+003,9.378197e+001
2.496824e+003,9.643895e+001
2.497788e+003,9.749719e+001
2.498753e+003,9.589011e+001
2.499717e+003,9.412259e+001
2.500681e+003,9.293810e+001
2.501645e+003,9.252356e+001
2.502610e+003,9.283185e+001
2.503574e+003,9.370792e+001
2.504538e+003,9.528763e+001
2.505502e+003,9.686353e+001
2.506467e+003,9.699907e+001
2.507431e+003,9.648100e+001
2.508395e+003,9.746082e+001
2.509359e+003,9.833281e+001
2.510323e+003,9.579367e+001
2.511288e+003,9.266937e+001
2.512252e+003,9.322112e+001
2.513216e+003,9.554811e+001
2.514180e+003,9.620699e+001
2.515145e+003,9.551149e+001
2.516109e+003,9.556071e+001
2.517073e+003,9.643735e+001
2.518037e+003,9.582985e+001
2.519001e+003,9.236082e+001
2.519966e+003,9.191051e+001
2.520930e+003,9.622121e+001
2.521894e+003,9.845758e+001
2.522858e+003,9.759207e+001
2.523823e+003,9.677826e+001
2.524787e+003,9.676477e+001
2.525751e+003,9.701692e+001
2.526715e+003,9.733455e+001
2.527680e+003,9.675471e+001
2.528644e+003,9.457616e+001
2.529608e+003,9.278044e+001
2.530572e+003,9.360042e+001
2.531537e+003,9.507402e+001
2.532501e+003,9.481041e+001
2.533465e+003,9.397719e+001
2.534429e+003,9.407428e+001
2.535394e+003,9.453439e+001
2.536358e+003,9.410388e+001
2.537322e+003,9.323412e+001
2.538286e+003,9.319861e+001
2.539250e+003,9.361043e+001
2.540215e+003,9.305794e+001
2.541179e+003,9.151242e+001
2.542143e+003,9.048233e+001
2.543107e+003,9.046765e+001
2.544072e+003,9.096414e+001
2.545036e+003,9.164389e+001
2.546000e+003,9.241901e+001
2.546964e+003,9.332420e+001
2.547928e+003,9.359717e+001
2.548893e+003,9.307364e+001
2.549857e+003,9.147025e+001
2.550821e+003,8.888170e+001
2.551785e+003,8.673497e+001
2.552750e+003,8.587865e+001
2.553714e+003,8.568788e+001
2.554678e+003,8.586737e+001
2.555642e+003,8.600984e+001
2.556607e+003,8.452351e+001
2.557571e+003,8.341687e+001
2.558535e+003,8.601102e+001
2.559499e+003,8.845753e+001
2.560464e+003,8.710080e+001
2.561428e+003,8.464691e+001
2.562392e+003,8.347894e+001
2.563356e+003,8.308315e+001
2.564321e+003,8.276009e+001
2.565285e+003,8.254988e+001
2.566249e+003,8.216605e+001
2.567213e+003,8.135983e+001
2.568177e+003,8.042032e+001
2.569142e+003,7.940543e+001
2.570106e+003,7.875912e+001
2.571070e+003,7.864775e+001
2.572034e+003,7.821384e+001
2.572999e+003,7.738361e+001
2.573963e+003,7.589912e+001
2.574927e+003,7.378358e+001
2.575891e+003,7.279324e+001
2.576855e+003,7.344748e+001
2.577820e+003,7.370334e+001
2.578784e+003,7.314153e+001
2.579748e+003,7.151315e+001
2.580712e+003,6.677684e+001
2.581677e+003,6.358757e+001
2.582641e+003,6.427689e+001
2.583605e+003,6.553935e+001
2.584569e+003,6.646194e+001
2.585534e+003,6.714844e+001
2.586498e+003,6.801016e+001
2.587462e+003,6.794832e+001
2.588426e+003,6.537192e+001
2.589391e+003,6.201962e+001
2.590355e+003,6.132193e+001
2.591319e+003,6.247942e+001
2.592283e+003,6.316757e+001
2.593248e+003,6.336845e+001
2.594212e+003,6.277261e+001
2.595176e+003,6.168423e+001
2.596140e+003,6.042046e+001
2.597104e+003,5.942136e+001
2.598069e+003,5.968816e+001
2.599033e+003,6.081520e+001
2.599997e+003,6.167120e+001
2.600961e+003,6.213441e+001
2.601926e+003,6.222758e+001
2.602890e+003,6.178749e+001
2.603854e+003,6.118961e+001
2.604818e+003,6.019942e+001
2.605782e+003,5.905527e+001
2.606747e+003,5.790303e+001
2.607711e+003,5.727254e+001
2.608675e+003,5.732474e+001
2.609639e+003,5.662268e+001
2.610604e+003,5.472568e+001
2.611568e+003,5.419080e+001
2.612532e+003,5.642937e+001
2.613496e+003,5.825928e+001
2.614461e+003,5.664145e+001
2.615425e+003,5.398204e+001
2.616389e+003,5.270074e+001
2.617353e+003,5.172325e+001
2.618318e+003,5.009930e+001
2.619282e+003,4.876445e+001
2.620246e+003,4.839873e+001
2.621210e+003,4.935529e+001
2.622175e+003,5.233218e+001
2.623139e+003,5.519037e+001
2.624103e+003,5.556569e+001
2.625067e+003,5.398657e+001
2.626031e+003,5.222725e+001
2.626996e+003,5.105077e+001
2.627960e+003,5.102144e+001
2.628924e+003,5.149692e+001
2.629888e+003,5.116768e+001
2.630853e+003,5.023079e+001
2.631817e+003,4.983832e+001
2.632781e+003,5.069861e+001
2.633745e+003,5.310616e+001
2.634709e+003,5.542827e+001
2.635674e+003,5.462196e+001
2.636638e+003,5.066385e+001
2.637602e+003,4.709315e+001
2.638566e+003,4.528232e+001
2.639531e+003,4.502972e+001
2.640495e+003,4.714589e+001
2.641459e+003,4.692984e+001
2.642423e+003,4.307259e+001
2.643388e+003,4.192366e+001
2.644352e+003,4.489265e+001
2.645316e+003,4.743469e+001
2.646280e+003,4.786250e+001
2.647245e+003,4.797667e+001
2.648209e+003,4.922517e+001
2.649173e+003,5.045358e+001
2.650137e+003,4.995595e+001
2.651102e+003,4.932956e+001
2.652066e+003,5.020618e+001
2.653030e+003,5.040511e+001
2.653994e+003,4.919730e+001
2.654958e+003,4.757539e+001
2.655923e+003,4.554305e+001
2.656887e+003,4.400049e+001
2.657851e+003,4.315099e+001
2.658815e+003,4.261401e+001
2.659780e+003,4.255088e+001
2.660744e+003,4.262357e+001
2.661708e+003,4.202230e+001
2.662672e+003,4.108588e+001
2.663636e+003,4.050826e+001
2.664601e+003,4.028612e+001
2.665565e+003,4.089575e+001
2.666529e+003,4.171101e+001
2.667493e+003,4.125964e+001
2.668458e+003,4.012817e+001
2.669422e+003,3.916008e+001
2.670386e+003,3.829984e+001
2.671350e+003,3.808861e+001
2.672315e+003,3.884138e+001
2.673279e+003,3.898384e+001
2.674243e+003,3.775481e+001
2.675207e+003,3.755131e+001
2.676172e+003,3.893065e+001
2.677136e+003,3.893782e+001
2.678100e+003,3.763785e+001
2.679064e+003,3.777367e+001
2.680029e+003,3.909499e+001
2.680993e+003,3.925607e+001
2.681957e+003,3.798524e+001
2.682921e+003,3.546265e+001
2.683885e+003,3.180909e+001
2.684850e+003,3.007102e+001
2.685814e+003,3.288987e+001
2.686778e+003,3.552174e+001
2.687742e+003,3.479059e+001
2.688707e+003,3.460090e+001
2.689671e+003,3.639017e+001
2.690635e+003,3.662236e+001
2.691599e+003,3.451282e+001
2.692563e+003,3.232578e+001
2.693528e+003,3.103757e+001
2.694492e+003,3.017690e+001
2.695456e+003,2.934949e+001
2.696420e+003,2.838674e+001
2.697385e+003,2.693951e+001
2.698349e+003,2.606071e+001
2.699313e+003,2.771793e+001
2.700277e+003,2.996650e+001
2.701242e+003,3.129109e+001
2.702206e+003,3.118047e+001
2.703170e+003,2.829363e+001
2.704134e+003,2.539051e+001
2.705099e+003,2.558147e+001
2.706063e+003,2.691576e+001
2.707027e+003,2.723164e+001
2.707991e+003,2.674477e+001
2.708956e+003,2.564687e+001
2.709920e+003,2.417815e+001
2.710884e+003,2.428911e+001
2.711848e+003,2.555062e+001
2.712813e+003,2.669599e+001
2.713777e+003,2.735950e+001
2.714741e+003,2.515446e+001
2.715705e+003,2.171397e+001
2.716669e+003,2.192810e+001
2.717634e+003,2.456345e+001
2.718598e+003,2.506583e+001
2.719562e+003,2.373559e+001
2.720526e+003,2.272430e+001
2.721490e+003,2.101490e+001
2.722455e+003,2.058817e+001
2.723419e+003,2.212766e+001
2.724383e+003,2.198280e+001
2.725347e+003,2.048626e+001
2.726312e+003,2.055053e+001
2.727276e+003,2.154878e+001
2.728240e+003,2.143307e+001
2.729204e+003,2.070194e+001
2.730169e+003,2.071944e+001
2.731133e+003,2.102107e+001
2.732097e+003,2.005930e+001
2.733061e+003,1.708408e+001
2.734026e+003,1.543864e+001
2.734990e+003,1.749037e+001
2.735954e+003,1.867414e+001
2.736918e+003,1.787151e+001
2.737883e+003,1.681008e+001
2.738847e+003,1.561727e+001
2.739811e+003,1.519749e+001
2.740775e+003,1.586517e+001
2.741740e+003,1.652229e+001
2.742704e+003,1.697874e+001
2.743668e+003,1.745353e+001
2.744632e+003,1.740485e+001
2.745596e+003,1.780096e+001
2.746561e+003,1.961872e+001
2.747525e+003,1.968900e+001
2.748489e+003,1.721285e+001
2.749453e+003,1.498334e+001
2.750417e+003,1.368412e+001
2.751382e+003,1.358591e+001
2.752346e+003,1.453778e+001
2.753310e+003,1.523524e+001
2.754274e+003,1.478591e+001
2.755239e+003,1.421825e+001
2.756203e+003,1.479577e+001
2.757167e+003,1.537153e+001
2.758131e+003,1.491267e+001
2.759096e+003,1.381190e+001
2.760060e+003,1.155663e+001
2.761024e+003,1.008292e+001
2.761988e+003,1.069141e+001
2.762953e+003,1.223930e+001
2.763917e+003,1.441814e+001
2.764881e+003,1.613984e+001
2.765845e+003,1.632128e+001
2.766810e+003,1.557778e+001
2.767774e+003,1.496624e+001
2.768738e+003,1.442455e+001
2.769702e+003,1.288966e+001
2.770667e+003,1.195789e+001
2.771631e+003,1.365291e+001
2.772595e+003,1.529502e+001
2.773559e+003,1.546237e+001
2.774523e+003,1.494360e+001
2.775488e+003,1.446134e+001
2.776452e+003,1.417313e+001
2.777416e+003,1.267407e+001
2.778380e+003,1.022838e+001
2.779344e+003,1.179042e+001
2.780309e+003,1.596501e+001
2.781273e+003,1.390592e+001
2.782237e+003,9.928886e+000
2.783201e+003,1.057830e+001
2.784166e+003,1.232666e+001
2.785130e+003,1.275222e+001
2.786094e+003,1.275685e+001
2.787058e+003,1.367894e+001
2.788023e+003,1.508925e+001
2.788987e+003,1.494820e+001
2.789951e+003,1.364066e+001
2.790915e+003,1.395260e+001
2.791880e+003,1.538445e+001
2.792844e+003,1.341817e+001
2.793808e+003,9.803604e+000
2.794772e+003,9.750641e+000
2.795737e+003,1.128708e+001
2.796701e+003,1.170389e+001
2.797665e+003,1.163018e+001
2.798629e+003,1.230046e+001
2.799594e+003,1.362892e+001
2.800558e+003,1.407146e+001
2.801522e+003,1.356438e+001
2.802486e+003,1.368977e+001
2.803450e+003,1.391472e+001
2.804415e+003,1.355263e+001
2.805379e+003,1.283348e+001
2.806343e+003,1.237162e+001
2.807307e+003,1.304931e+001
2.808271e+003,1.350041e+001
2.809236e+003,1.266655e+001
2.810200e+003,1.186934e+001
2.811164e+003,1.190057e+001
2.812128e+003,1.226191e+001
2.813093e+003,1.289417e+001
2.814057e+003,1.299915e+001
2.815021e+003,1.113631e+001
2.815985e+003,9.532227e+000
2.816950e+003,9.454247e+000
2.817914e+003,1.222356e+001
2.818878e+003,1.611058e+001
2.819842e+003,1.538232e+001
2.820807e+003,1.132738e+001
2.821771e+003,8.869926e+000
2.822735e+003,8.301285e+000
2.823699e+003,8.163826e+000
2.824664e+003,8.733536e+000
2.825628e+003,9.598152e+000
2.826592e+003,1.118854e+001
2.827556e+003,1.136470e+001
2.828521e+003,9.419861e+000
2.829485e+003,8.856346e+000
2.830449e+003,1.005535e+001
2.831413e+003,1.114066e+001
2.832377e+003,1.132140e+001
2.833342e+003,1.014526e+001
2.834306e+003,8.187798e+000
2.835270e+003,7.145271e+000
2.836234e+003,7.317200e+000
2.837198e+003,8.081429e+000
2.838163e+003,9.932854e+000
2.839127e+003,1.048614e+001
2.840091e+003,9.608772e+000
2.841055e+003,9.158249e+000
2.842020e+003,9.017952e+000
2.842984e+003,8.925636e+000
2.843948e+003,8.806358e+000
2.844912e+003,7.858070e+000
2.845877e+003,6.211395e+000
2.846841e+003,5.306793e+000
2.847805e+003,5.531853e+000
2.848769e+003,5.962196e+000
2.849734e+003,6.471848e+000
2.850698e+003,6.756744e+000
2.851662e+003,6.829979e+000
2.852626e+003,6.193527e+000
2.853591e+003,5.172203e+000
2.854555e+003,4.808762e+000
2.855519e+003,5.142464e+000
2.856483e+003,6.368347e+000
2.857448e+003,8.109505e+000
2.858412e+003,8.291977e+000
2.859376e+003,6.447449e+000
2.860340e+003,5.714867e+000
2.861304e+003,6.297302e+000
2.862269e+003,7.849190e+000
2.863233e+003,1.019806e+001
2.864197e+003,1.025286e+001
2.865161e+003,8.510323e+000
2.866125e+003,6.706955e+000
2.867090e+003,5.160408e+000
2.868054e+003,4.912079e+000
2.869018e+003,5.930374e+000
2.869982e+003,6.376862e+000
2.870947e+003,6.254395e+000
2.871911e+003,6.700150e+000
2.872875e+003,7.259132e+000
2.873839e+003,7.094498e+000
2.874804e+003,6.343834e+000
2.875768e+003,5.549019e+000
2.876732e+003,4.946289e+000
2.877696e+003,5.199356e+000
2.878661e+003,6.061028e+000
2.879625e+003,6.161148e+000
2.880589e+003,5.318275e+000
2.881553e+003,5.032860e+000
2.882518e+003,5.852386e+000
2.883482e+003,6.539864e+000
2.884446e+003,7.162560e+000
2.885410e+003,6.464516e+000
2.886375e+003,4.532005e+000
2.887339e+003,4.211510e+000
2.888303e+003,5.373421e+000
2.889267e+003,5.798035e+000
2.890231e+003,5.472061e+000
2.891196e+003,6.045891e+000
2.892160e+003,7.774849e+000
2.893124e+003,9.775482e+000
2.894088e+003,1.204756e+001
2.895052e+003,1.270266e+001
2.896017e+003,1.159857e+001
2.896981e+003,1.082362e+001
2.897945e+003,1.044156e+001
2.898909e+003,1.042616e+001
2.899874e+003,1.068147e+001
2.900838e+003,1.105542e+001
2.901802e+003,1.144298e+001
2.902766e+003,1.154773e+001
2.903731e+003,1.143229e+001
2.904695e+003,1.206292e+001
2.905659e+003,1.349037e+001
2.906623e+003,1.316943e+001
2.907588e+003,1.136823e+001
2.908552e+003,1.354429e+001
2.909516e+003,1.817650e+001
2.910480e+003,1.931001e+001
2.911445e+003,1.786766e+001
2.912409e+003,1.738469e+001
2.913373e+003,1.802823e+001
2.914337e+003,1.851131e+001
2.915302e+003,1.879752e+001
2.916266e+003,1.947022e+001
2.917230e+003,2.049958e+001
2.918194e+003,2.161418e+001
2.919158e+003,2.275278e+001
2.920123e+003,2.349516e+001
2.921087e+003,2.413282e+001
2.922051e+003,2.569685e+001
2.923015e+003,2.738968e+001
2.923979e+003,2.715199e+001
2.924944e+003,2.604219e+001
2.925908e+003,2.703765e+001
2.926872e+003,2.940666e+001
2.927836e+003,3.095177e+001
2.928801e+003,3.163541e+001
2.929765e+003,3.067196e+001
2.930729e+003,2.917700e+001
2.931693e+003,2.968340e+001
2.932658e+003,3.113488e+001
2.933622e+003,3.211824e+001
2.934586e+003,3.272342e+001
2.935550e+003,3.309984e+001
2.936515e+003,3.350271e+001
2.937479e+003,3.416512e+001
2.938443e+003,3.533228e+001
2.939407e+003,3.820580e+001
2.940372e+003,4.109650e+001
2.941336e+003,3.949826e+001
2.942300e+003,3.670792e+001
2.943264e+003,3.663282e+001
2.944229e+003,3.770366e+001
2.945193e+003,3.858056e+001
2.946157e+003,3.929757e+001
2.947121e+003,3.991318e+001
2.948085e+003,4.061778e+001
2.949050e+003,4.170834e+001
2.950014e+003,4.256576e+001
2.950978e+003,4.192517e+001
2.951942e+003,4.097911e+001
2.952906e+003,4.073602e+001
2.953871e+003,4.117850e+001
2.954835e+003,4.296597e+001
2.955799e+003,4.445801e+001
2.956763e+003,4.466929e+001
2.957728e+003,4.495354e+001
2.958692e+003,4.621491e+001
2.959656e+003,4.717647e+001
2.960620e+003,4.666434e+001
2.961585e+003,4.571796e+001
2.962549e+003,4.480427e+001
2.963513e+003,4.459781e+001
2.964477e+003,4.590750e+001
2.965442e+003,4.730271e+001
2.966406e+003,4.836012e+001
2.967370e+003,4.951605e+001
2.968334e+003,5.092387e+001
2.969299e+003,5.209779e+001
2.970263e+003,5.279458e+001
2.971227e+003,5.307658e+001
2.972191e+003,5.287200e+001
2.973156e+003,5.301081e+001
2.974120e+003,5.473661e+001
2.975084e+003,5.506937e+001
2.976048e+003,5.291589e+001
2.977012e+003,5.266339e+001
2.977977e+003,5.493031e+001
2.978941e+003,5.753275e+001
2.979905e+003,5.954227e+001
2.980869e+003,5.906042e+001
2.981833e+003,5.591936e+001
2.982798e+003,5.445805e+001
2.983762e+003,5.648566e+001
2.984726e+003,5.765193e+001
2.985690e+003,5.745541e+001
2.986655e+003,5.748944e+001
2.987619e+003,5.781921e+001
2.988583e+003,5.890114e+001
2.989547e+003,6.033968e+001
2.990512e+003,6.057851e+001
2.991476e+003,5.970306e+001
2.992440e+003,5.878471e+001
2.993404e+003,5.809981e+001
2.994369e+003,5.781542e+001
2.995333e+003,5.795685e+001
2.996297e+003,5.985018e+001
2.997261e+003,6.295455e+001
2.998226e+003,6.342289e+001
2.999190e+003,6.262867e+001
3.000154e+003,6.472779e+001
3.001118e+003,6.763644e+001
3.002083e+003,6.612649e+001
3.003047e+003,6.275320e+001
3.004011e+003,6.365063e+001
3.004975e+003,6.682072e+001
3.005939e+003,6.742763e+001
3.006904e+003,6.666271e+001
3.007868e+003,6.792101e+001
3.008832e+003,6.980587e+001
3.009796e+003,7.036506e+001
3.010760e+003,7.036325e+001
3.011725e+003,7.036140e+001
3.012689e+003,7.062811e+001
3.013653e+003,7.145583e+001
3.014617e+003,7.217982e+001
3.015582e+003,7.209646e+001
3.016546e+003,7.181053e+001
3.017510e+003,7.210990e+001
3.018474e+003,7.255604e+001
3.019439e+003,7.247722e+001
3.020403e+003,7.279662e+001
3.021367e+003,7.482667e+001
3.022331e+003,7.580242e+001
3.023296e+003,7.457130e+001
3.024260e+003,7.440324e+001
3.025224e+003,7.676286e+001
3.026188e+003,7.793640e+001
3.027153e+003,7.546624e+001
3.028117e+003,7.404944e+001
3.029081e+003,7.778182e+001
3.030045e+003,8.007722e+001
3.031010e+003,7.893333e+001
3.031974e+003,7.967031e+001
3.032938e+003,8.290718e+001
3.033902e+003,8.492338e+001
3.034866e+003,8.509457e+001
3.035831e+003,8.472850e+001
3.036795e+003,8.440462e+001
3.037759e+003,8.474970e+001
3.038723e+003,8.597720e+001
3.039688e+003,8.776778e+001
3.040652e+003,9.025423e+001
3.041616e+003,9.223180e+001
3.042580e+003,9.345414e+001
3.043544e+003,9.127467e+001
3.044509e+003,8.774089e+001
3.045473e+003,8.919651e+001
3.046437e+003,9.352228e+001
3.047401e+003,9.363603e+001
3.048366e+003,9.075178e+001
3.049330e+003,8.994712e+001
3.050294e+003,9.074429e+001
3.051258e+003,9.156322e+001
3.052223e+003,9.241965e+001
3.053187e+003,9.343644e+001
3.054151e+003,9.443806e+001
3.055115e+003,9.498235e+001
3.056080e+003,9.568062e+001
3.057044e+003,9.754693e+001
3.058008e+003,9.903728e+001
3.058972e+003,9.868446e+001
3.059937e+003,9.785180e+001
3.060901e+003,9.793831e+001
3.061865e+003,9.923344e+001
3.062829e+003,1.033775e+002
3.063793e+003,1.068595e+002
3.064758e+003,1.074109e+002
3.065722e+003,1.070818e+002
3.066686e+003,1.063460e+002
3.067650e+003,1.054164e+002
3.068615e+003,1.044274e+002
3.069579e+003,1.045215e+002
3.070543e+003,1.062125e+002
3.071507e+003,1.069053e+002
3.072471e+003,1.045237e+002
3.073436e+003,1.036991e+002
3.074400e+003,1.056541e+002
3.075364e+003,1.065820e+002
3.076328e+003,1.063213e+002
3.077293e+003,1.070437e+002
3.078257e+003,1.086842e+002
3.079221e+003,1.093536e+002
3.080185e+003,1.091117e+002
3.081150e+003,1.101049e+002
3.082114e+003,1.123683e+002
3.083078e+003,1.126964e+002
3.084042e+003,1.112843e+002
3.085007e+003,1.109919e+002
3.085971e+003,1.114551e+002
3.086935e+003,1.113362e+002
3.087899e+003,1.114286e+002
3.088864e+003,1.137185e+002
3.089828e+003,1.165758e+002
3.090792e+003,1.179675e+002
3.091756e+003,1.177216e+002
3.092720e+003,1.152551e+002
3.093685e+003,1.125237e+002
3.094649e+003,1.135979e+002
3.095613e+003,1.152434e+002
3.096577e+003,1.127819e+002
3.097542e+003,1.109453e+002
3.098506e+003,1.136527e+002
3.099470e+003,1.164787e+002
3.100434e+003,1.179890e+002
3.101398e+003,1.189659e+002
3.102363e+003,1.198075e+002
3.103327e+003,1.199468e+002
3.104291e+003,1.189150e+002
3.105255e+003,1.180053e+002
3.106220e+003,1.174933e+002
3.107184e+003,1.180567e+002
3.108148e+003,1.199662e+002
3.109112e+003,1.205646e+002
3.110077e+003,1.199555e+002
3.111041e+003,1.213831e+002
3.112005e+003,1.246667e+002
3.112969e+003,1.269808e+002
3.113934e+003,1.276517e+002
3.114898e+003,1.268723e+002
3.115862e+003,1.248874e+002
3.116826e+003,1.228158e+002
3.117791e+003,1.211625e+002
3.118755e+003,1.228703e+002
3.119719e+003,1.263270e+002
3.120683e+003,1.291634e+002
3.121647e+003,1.312129e+002
3.122612e+003,1.322645e+002
3.123576e+003,1.330047e+002
3.124540e+003,1.341609e+002
3.125504e+003,1.348490e+002
3.126469e+003,1.333475e+002
3.127433e+003,1.318969e+002
3.128397e+003,1.336515e+002
3.129361e+003,1.357808e+002
3.130325e+003,1.371006e+002
3.131290e+003,1.372462e+002
3.132254e+003,1.359970e+002
3.133218e+003,1.342299e+002
3.134182e+003,1.324580e+002
3.135147e+003,1.326848e+002
3.136111e+003,1.358646e+002
3.137075e+003,1.385195e+002
3.138039e+003,1.390894e+002
3.139004e+003,1.393846e+002
3.139968e+003,1.393814e+002
3.140932e+003,1.406757e+002
3.141896e+003,1.427858e+002
3.142861e+003,1.425193e+002
3.143825e+003,1.406643e+002
3.144789e+003,1.406288e+002
3.145753e+003,1.421183e+002
3.146718e+003,1.424151e+002
3.147682e+003,1.418020e+002
3.148646e+003,1.410820e+002
3.149610e+003,1.407634e+002
3.150574e+003,1.429534e+002
3.151539e+003,1.456613e+002
3.152503e+003,1.462826e+002
3.153467e+003,1.463475e+002
3.154431e+003,1.471938e+002
3.155396e+003,1.479937e+002
3.156360e+003,1.481508e+002
3.157324e+003,1.485809e+002
3.158288e+003,1.502047e+002
3.159252e+003,1.515379e+002
3.160217e+003,1.515261e+002
3.161181e+003,1.507690e+002
3.162145e+003,1.489151e+002
3.163109e+003,1.481523e+002
3.164074e+003,1.487827e+002
3.165038e+003,1.508483e+002
3.166002e+003,1.538219e+002
3.166966e+003,1.557035e+002
3.167931e+003,1.560257e+002
3.168895e+003,1.550126e+002
3.169859e+003,1.529368e+002
3.170823e+003,1.556101e+002
3.171788e+003,1.616943e+002
3.172752e+003,1.634676e+002
3.173716e+003,1.623581e+002
3.174680e+003,1.604744e+002
3.175645e+003,1.587439e+002
3.176609e+003,1.577991e+002
3.177573e+003,1.580395e+002
3.178537e+003,1.601864e+002
3.179501e+003,1.622864e+002
3.180466e+003,1.614027e+002
3.181430e+003,1.599875e+002
3.182394e+003,1.604641e+002
3.183358e+003,1.612357e+002
3.184323e+003,1.615730e+002
3.185287e+003,1.623502e+002
3.186251e+003,1.637768e+002
3.187215e+003,1.638886e+002
3.188179e+003,1.624526e+002
3.189144e+003,1.632927e+002
3.190108e+003,1.678603e+002
3.191072e+003,1.696999e+002
3.192036e+003,1.674424e+002
3.193001e+003,1.658513e+002
3.193965e+003,1.649826e+002
3.194929e+003,1.657117e+002
3.195893e+003,1.672116e+002
3.196858e+003,1.677922e+002
3.197822e+003,1.675618e+002
3.198786e+003,1.668917e+002
3.199750e+003,1.661233e+002
3.200715e+003,1.655461e+002
3.201679e+003,1.655786e+002
3.202643e+003,1.675563e+002
3.203607e+003,1.697481e+002
3.204572e+003,1.705916e+002
3.205536e+003,1.707032e+002
3.206500e+003,1.701752e+002
3.207464e+003,1.696771e+002
3.208428e+003,1.694234e+002
3.209393e+003,1.692871e+002
3.210357e+003,1.692943e+002
3.211321e+003,1.707369e+002
3.212285e+003,1.748560e+002
3.213250e+003,1.752438e+002
3.214214e+003,1.706288e+002
3.215178e+003,1.695728e+002
3.216142e+003,1.715855e+002
3.217106e+003,1.739413e+002
3.218071e+003,1.757976e+002
3.219035e+003,1.759913e+002
3.219999e+003,1.750493e+002
3.220963e+003,1.741048e+002
3.221928e+003,1.735445e+002
3.222892e+003,1.739936e+002
3.223856e+003,1.753898e+002
3.224820e+003,1.783308e+002
3.225785e+003,1.811927e+002
3.226749e+003,1.833185e+002
3.227713e+003,1.835139e+002
3.228677e+003,1.810304e+002
3.229642e+003,1.791266e+002
3.230606e+003,1.791101e+002
3.231570e+003,1.808004e+002
3.232534e+003,1.841091e+002
3.233499e+003,1.853249e+002
3.234463e+003,1.819380e+002
3.235427e+003,1.815904e+002
3.236391e+003,1.841323e+002
3.237355e+003,1.857781e+002
3.238320e+003,1.863987e+002
3.239284e+003,1.862321e+002
3.240248e+003,1.856124e+002
3.241212e+003,1.848361e+002
3.242177e+003,1.841854e+002
3.243141e+003,1.839429e+002
3.244105e+003,1.843189e+002
3.245069e+003,1.857409e+002
3.246033e+003,1.879174e+002
3.246998e+003,1.912135e+002
3.247962e+003,1.942173e+002
3.248926e+003,1.968024e+002
3.249890e+003,1.969921e+002
3.250855e+003,1.943126e+002
3.251819e+003,1.925132e+002
3.252783e+003,1.930517e+002
3.253747e+003,1.944127e+002
3.254712e+003,1.963075e+002
3.255676e+003,1.964345e+002
3.256640e+003,1.946631e+002
3.257604e+003,1.927724e+002
3.258569e+003,1.913128e+002
3.259533e+003,1.918105e+002
3.260497e+003,1.939212e+002
3.261461e+003,1.981616e+002
3.262426e+003,2.018462e+002
3.263390e+003,2.015380e+002
3.264354e+003,2.000682e+002
3.265318e+003,2.016057e+002
3.266282e+003,2.036561e+002
3.267247e+003,2.034773e+002
3.268211e+003,2.029918e+002
3.269175e+003,2.026016e+002
3.270139e+003,2.033037e+002
3.271104e+003,2.052813e+002
3.272068e+003,2.078723e+002
3.273032e+003,2.105355e+002
3.273996e+003,2.113031e+002
3.274960e+003,2.097506e+002
3.275925e+003,2.102369e+002
3.276889e+003,2.128245e+002
3.277853e+003,2.129730e+002
3.278817e+003,2.119991e+002
3.279782e+003,2.146783e+002
3.280746e+003,2.176695e+002
3.281710e+003,2.145770e+002
3.282674e+003,2.110603e+002
3.283639e+003,2.122838e+002
3.284603e+003,2.144217e+002
3.285567e+003,2.138248e+002
3.286531e+003,2.128134e+002
3.287496e+003,2.128031e+002
3.288460e+003,2.142246e+002
3.289424e+003,2.177278e+002
3.290388e+003,2.205518e+002
3.291353e+003,2.222860e+002
3.292317e+003,2.218715e+002
3.293281e+003,2.199880e+002
3.294245e+003,2.196046e+002
3.295209e+003,2.209292e+002
3.296174e+003,2.216774e+002
3.297138e+003,2.220143e+002
3.298102e+003,2.231558e+002
3.299066e+003,2.241824e+002
3.300031e+003,2.222057e+002
3.300995e+003,2.205569e+002
3.301959e+003,2.237521e+002
3.302923e+003,2.262852e+002
3.303887e+003,2.257687e+002
3.304852e+003,2.235413e+002
3.305816e+003,2.204256e+002
3.306780e+003,2.199031e+002
3.307744e+003,2.248320e+002
3.308709e+003,2.295561e+002
3.309673e+003,2.339179e+002
3.310637e+003,2.336945e+002
3.311601e+003,2.301958e+002
3.312566e+003,2.294037e+002
3.313530e+003,2.306457e+002
3.314494e+003,2.309982e+002
3.315458e+003,2.305738e+002
3.316423e+003,2.299455e+002
3.317387e+003,2.297062e+002
3.318351e+003,2.315182e+002
3.319315e+003,2.332334e+002
3.320280e+003,2.317456e+002
3.321244e+003,2.309787e+002
3.322208e+003,2.324248e+002
3.323172e+003,2.341973e+002
3.324136e+003,2.357957e+002
3.325101e+003,2.375090e+002
3.326065e+003,2.393399e+002
3.327029e+003,2.405193e+002
3.327993e+003,2.408707e+002
3.328958e+003,2.418762e+002
3.329922e+003,2.431829e+002
3.330886e+003,2.414053e+002
3.331850e+003,2.386278e+002
3.332814e+003,2.382637e+002
3.333779e+003,2.394417e+002
3.334743e+003,2.413882e+002
3.335707e+003,2.430125e+002
3.336671e+003,2.435300e+002
3.337636e+003,2.440622e+002
3.338600e+003,2.453464e+002
3.339564e+003,2.476987e+002
3.340528e+003,2.534928e+002
3.341493e+003,2.537615e+002
3.342457e+003,2.485121e+002
3.343421e+003,2.465709e+002
3.344385e+003,2.482791e+002
3.345350e+003,2.518520e+002
3.346314e+003,2.553923e+002
3.347278e+003,2.554274e+002
3.348242e+003,2.530782e+002
3.349207e+003,2.497413e+002
3.350171e+003,2.477453e+002
3.351135e+003,2.526140e+002
3.352099e+003,2.578005e+002
3.353063e+003,2.586279e+002
3.354028e+003,2.592873e+002
3.354992e+003,2.608168e+002
3.355956e+003,2.608851e+002
3.356920e+003,2.589608e+002
3.357885e+003,2.573037e+002
3.358849e+003,2.567279e+002
3.359813e+003,2.601551e+002
3.360777e+003,2.672206e+002
3.361741e+003,2.679759e+002
3.362706e+003,2.651051e+002
3.363670e+003,2.638638e+002
3.364634e+003,2.629891e+002
3.365598e+003,2.595198e+002
3.366563e+003,2.579908e+002
3.367527e+003,2.617188e+002
3.368491e+003,2.668961e+002
3.369455e+003,2.709762e+002
3.370420e+003,2.724978e+002
3.371384e+003,2.682498e+002
3.372348e+003,2.669480e+002
3.373312e+003,2.687812e+002
3.374277e+003,2.698701e+002
3.375241e+003,2.703717e+002
3.376205e+003,2.728217e+002
3.377169e+003,2.760955e+002
3.378134e+003,2.766552e+002
3.379098e+003,2.761725e+002
3.380062e+003,2.783801e+002
3.381026e+003,2.804571e+002
3.381990e+003,2.768643e+002
3.382955e+003,2.741887e+002
3.383919e+003,2.769093e+002
3.384883e+003,2.778734e+002
3.385847e+003,2.756983e+002
3.386812e+003,2.746120e+002
3.387776e+003,2.756779e+002
3.388740e+003,2.769318e+002
3.389704e+003,2.778761e+002
3.390668e+003,2.787133e+002
3.391633e+003,2.792906e+002
3.392597e+003,2.779354e+002
3.393561e+003,2.764449e+002
3.394525e+003,2.779439e+002
3.395490e+003,2.801583e+002
3.396454e+003,2.813720e+002
3.397418e+003,2.821997e+002
3.398382e+003,2.829966e+002
3.399347e+003,2.839925e+002
3.400311e+003,2.854008e+002
3.401275e+003,2.866038e+002
3.402239e+003,2.876989e+002
3.403204e+003,2.871086e+002
3.404168e+003,2.852187e+002
3.405132e+003,2.836709e+002
3.406096e+003,2.825150e+002
3.407061e+003,2.810268e+002
3.408025e+003,2.804095e+002
3.408989e+003,2.821811e+002
3.409953e+003,2.846714e+002
3.410917e+003,2.860672e+002
3.411882e+003,2.866733e+002
3.412846e+003,2.861986e+002
3.413810e+003,2.861824e+002
3.414774e+003,2.869418e+002
3.415739e+003,2.847130e+002
3.416703e+003,2.805881e+002
3.417667e+003,2.818244e+002
3.418631e+003,2.877995e+002
3.419595e+003,2.915517e+002
3.420560e+003,2.933938e+002
3.421524e+003,2.951838e+002
3.422488e+003,2.958504e+002
3.423452e+003,2.913436e+002
3.424417e+003,2.886593e+002
3.425381e+003,2.934696e+002
3.426345e+003,2.964181e+002
3.427309e+003,2.951891e+002
3.428274e+003,2.954933e+002
3.429238e+003,2.988083e+002
3.430202e+003,2.997610e+002
3.431166e+003,2.972466e+002
3.432131e+003,2.938062e+002
3.433095e+003,2.903963e+002
3.434059e+003,2.921281e+002
3.435023e+003,2.957248e+002
3.435988e+003,2.972299e+002
3.436952e+003,2.974759e+002
3.437916e+003,2.970357e+002
3.438880e+003,2.972703e+002
3.439844e+003,2.989635e+002
3.440809e+003,2.995874e+002
3.441773e+003,2.967517e+002
3.442737e+003,2.979648e+002
3.443701e+003,3.035994e+002
3.444666e+003,3.058568e+002
3.445630e+003,3.054949e+002
3.446594e+003,3.044287e+002
3.447558e+003,3.039046e+002
3.448522e+003,3.054297e+002
3.449487e+003,3.072584e+002
3.450451e+003,3.076592e+002
3.451415e+003,3.080443e+002
3.452379e+003,3.099457e+002
3.453344e+003,3.119082e+002
3.454308e+003,3.138705e+002
3.455272e+003,3.137820e+002
3.456236e+003,3.121463e+002
3.457201e+003,3.130203e+002
3.458165e+003,3.157060e+002
3.459129e+003,3.164098e+002
3.460093e+003,3.161599e+002
3.461058e+003,3.172425e+002
3.462022e+003,3.188004e+002
3.462986e+003,3.194830e+002
3.463950e+003,3.198907e+002
3.464915e+003,3.204362e+002
3.465879e+003,3.205470e+002
3.466843e+003,3.201853e+002
3.467807e+003,3.214364e+002
3.468771e+003,3.241619e+002
3.469736e+003,3.254998e+002
3.470700e+003,3.252867e+002
3.471664e+003,3.258459e+002
3.472628e+003,3.269232e+002
3.473593e+003,3.278802e+002
3.474557e+003,3.287278e+002
3.475521e+003,3.292333e+002
3.476485e+003,3.302109e+002
3.477449e+003,3.320620e+002
3.478414e+003,3.327703e+002
3.479378e+003,3.318195e+002
3.480342e+003,3.310503e+002
3.481306e+003,3.311391e+002
3.482271e+003,3.322008e+002
3.483235e+003,3.341203e+002
3.484199e+003,3.362770e+002
3.485163e+003,3.384460e+002
3.486128e+003,3.406128e+002
3.487092e+003,3.419725e+002
3.488056e+003,3.418580e+002
3.489020e+003,3.422726e+002
3.489985e+003,3.442154e+002
3.490949e+003,3.456537e+002
3.491913e+003,3.454361e+002
3.492877e+003,3.452645e+002
3.493842e+003,3.452804e+002
3.494806e+003,3.466801e+002
3.495770e+003,3.486721e+002
3.496734e+003,3.496571e+002
3.497698e+003,3.494253e+002
3.498663e+003,3.473766e+002
3.499627e+003,3.466095e+002
3.500591e+003,0.000000e+000
