9.974011e+001,4.378248e+002
1.007043e+002,4.381988e+002
1.016686e+002,4.393877e+002
1.026328e+002,4.411284e+002
1.035970e+002,4.421939e+002
1.045613e+002,4.434862e+002
1.055255e+002,4.444520e+002
1.064897e+002,4.438262e+002
1.074540e+002,4.400592e+002
1.084182e+002,4.357863e+002
1.093824e+002,4.300102e+002
1.103467e+002,4.230778e+002
1.113109e+002,4.171302e+002
1.122751e+002,4.165105e+002
1.132394e+002,4.178360e+002
1.142036e+002,4.195829e+002
1.151678e+002,4.206320e+002
1.161321e+002,4.205021e+002
1.170963e+002,4.188553e+002
1.180605e+002,4.160304e+002
1.190248e+002,4.128322e+002
1.199890e+002,4.102169e+002
1.209532e+002,4.092526e+002
1.219175e+002,4.075853e+002
1.228817e+002,4.044139e+002
1.238459e+002,4.006875e+002
1.248102e+002,3.983610e+002
1.257744e+002,3.998435e+002
1.267386e+002,3.999296e+002
1.277029e+002,3.966959e+002
1.286671e+002,3.906981e+002
1.296313e+002,3.853040e+002
1.305956e+002,3.842672e+002
1.315598e+002,3.841805e+002
1.325240e+002,3.841045e+002
1.334883e+002,3.836080e+002
1.344525e+002,3.831208e+002
1.354167e+002,3.834011e+002
1.363810e+002,3.838167e+002
1.373452e+002,3.835187e+002
1.383094e+002,3.817809e+002
1.392737e+002,3.783009e+002
1.402379e+002,3.759088e+002
1.412021e+002,3.747567e+002
1.421664e+002,3.741831e+002
1.431306e+002,3.732518e+002
1.440948e+002,3.716977e+002
1.450591e+002,3.707845e+002
1.460233e+002,3.709411e+002
1.469875e+002,3.715703e+002
1.479518e+002,3.713382e+002
1.489160e+002,3.673875e+002
1.498802e+002,3.633448e+002
1.508445e+002,3.611427e+002
1.518087e+002,3.613505e+002
1.527729e+002,3.631015e+002
1.537372e+002,3.639267e+002
1.547014e+002,3.634572e+002
1.556656e+002,3.613555e+002
1.566299e+002,3.575192e+002
1.575941e+002,3.520914e+002
1.585583e+002,3.489771e+002
1.595226e+002,3.489211e+002
1.604868e+002,3.497380e+002
1.614510e+002,3.491265e+002
1.624153e+002,3.452675e+002
1.633795e+002,3.415386e+002
1.643438e+002,3.387372e+002
1.653080e+002,3.367486e+002
1.662722e+002,3.351902e+002
1.672365e+002,3.334404e+002
1.682007e+002,3.322519e+002
1.691649e+002,3.325238e+002
1.701292e+002,3.340510e+002
1.710934e+002,3.360752e+002
1.720576e+002,3.367540e+002
1.730219e+002,3.365909e+002
1.739861e+002,3.364616e+002
1.749503e+002,3.364448e+002
1.759146e+002,3.361463e+002
1.768788e+002,3.339921e+002
1.778430e+002,3.308916e+002
1.788073e+002,3.280148e+002
1.797715e+002,3.257758e+002
1.807357e+002,3.239390e+002
1.817000e+002,3.239608e+002
1.826642e+002,3.260640e+002
1.836284e+002,3.281626e+002
1.845927e+002,3.286318e+002
1.855569e+002,3.262405e+002
1.865211e+002,3.226734e+002
1.874854e+002,3.198217e+002
1.884496e+002,3.177101e+002
1.894138e+002,3.161057e+002
1.903781e+002,3.144643e+002
1.913423e+002,3.131420e+002
1.923065e+002,3.123644e+002
1.932708e+002,3.118353e+002
1.942350e+002,3.113843e+002
1.951992e+002,3.113317e+002
1.961635e+002,3.126687e+002
1.971277e+002,3.138143e+002
1.980919e+002,3.142675e+002
1.990562e+002,3.141053e+002
2.000204e+002,3.149417e+002
2.009846e+002,3.189459e+002
2.019489e+002,3.218467e+002
2.029131e+002,3.216180e+002
2.038773e+002,3.176949e+002
2.048416e+002,3.135836e+002
2.058058e+002,3.118161e+002
2.067700e+002,3.113792e+002
2.077343e+002,3.119184e+002
2.086985e+002,3.131547e+002
2.096627e+002,3.148469e+002
2.106270e+002,3.162375e+002
2.115912e+002,3.173939e+002
2.125554e+002,3.182344e+002
2.135197e+002,3.186724e+002
2.144839e+002,3.186543e+002
2.154481e+002,3.170635e+002
2.164124e+002,3.136083e+002
2.173766e+002,3.092642e+002
2.183408e+002,3.053921e+002
2.193051e+002,3.018932e+002
2.202693e+002,2.991803e+002
2.212335e+002,2.977791e+002
2.221978e+002,2.970254e+002
2.231620e+002,2.956497e+002
2.241262e+002,2.914669e+002
2.250904e+002,2.879449e+002
2.260547e+002,2.872535e+002
2.270189e+002,2.892883e+002
2.279831e+002,2.926753e+002
2.289474e+002,2.945589e+002
2.299116e+002,2.954842e+002
2.308758e+002,2.956522e+002
2.318401e+002,2.950476e+002
2.328043e+002,2.937204e+002
2.337685e+002,2.932069e+002
2.347328e+002,2.926068e+002
2.356970e+002,2.919796e+002
2.366612e+002,2.917324e+002
2.376255e+002,2.923246e+002
2.385897e+002,2.926216e+002
2.395539e+002,2.923636e+002
2.405182e+002,2.917897e+002
2.414824e+002,2.909199e+002
2.424466e+002,2.897243e+002
2.434109e+002,2.886291e+002
2.443751e+002,2.878962e+002
2.453393e+002,2.872982e+002
2.463036e+002,2.865315e+002
2.472678e+002,2.853012e+002
2.482320e+002,2.840578e+002
2.491963e+002,2.857582e+002
2.501605e+002,2.909986e+002
2.511247e+002,2.972821e+002
2.520890e+002,3.006075e+002
2.530532e+002,2.975858e+002
2.540174e+002,2.958728e+002
2.549817e+002,2.968172e+002
2.559459e+002,2.994477e+002
2.569102e+002,3.017522e+002
2.578744e+002,3.020358e+002
2.588386e+002,3.008828e+002
2.598029e+002,2.982787e+002
2.607671e+002,2.951787e+002
2.617313e+002,2.931611e+002
2.626956e+002,2.955779e+002
2.636598e+002,2.997895e+002
2.646240e+002,3.013349e+002
2.655883e+002,2.992689e+002
2.665525e+002,2.947854e+002
2.675167e+002,2.947418e+002
2.684810e+002,3.011901e+002
2.694452e+002,3.066008e+002
2.704094e+002,3.083400e+002
2.713737e+002,3.062391e+002
2.723379e+002,3.051890e+002
2.733021e+002,3.058304e+002
2.742664e+002,3.064451e+002
2.752306e+002,3.068436e+002
2.761948e+002,3.070365e+002
2.771591e+002,3.066294e+002
2.781233e+002,3.045292e+002
2.790875e+002,3.026457e+002
2.800518e+002,3.022683e+002
2.810160e+002,3.039725e+002
2.819802e+002,3.068431e+002
2.829445e+002,3.083203e+002
2.839087e+002,3.088366e+002
2.848729e+002,3.091656e+002
2.858372e+002,3.099071e+002
2.868014e+002,3.112066e+002
2.877656e+002,3.127046e+002
2.887299e+002,3.143955e+002
2.896941e+002,3.155309e+002
2.906583e+002,3.156886e+002
2.916226e+002,3.149850e+002
2.925868e+002,3.138940e+002
2.935510e+002,3.116681e+002
2.945153e+002,3.095811e+002
2.954795e+002,3.088548e+002
2.964437e+002,3.105141e+002
2.974080e+002,3.124680e+002
2.983722e+002,3.129613e+002
2.993364e+002,3.126560e+002
3.003007e+002,3.122507e+002
3.012649e+002,3.124420e+002
3.022291e+002,3.131286e+002
3.031934e+002,3.140132e+002
3.041576e+002,3.153253e+002
3.051218e+002,3.167709e+002
3.060861e+002,3.177156e+002
3.070503e+002,3.170779e+002
3.080145e+002,3.161436e+002
3.089788e+002,3.150234e+002
3.099430e+002,3.143019e+002
3.109072e+002,3.148078e+002
3.118715e+002,3.180858e+002
3.128357e+002,3.215219e+002
3.137999e+002,3.233519e+002
3.147642e+002,3.236730e+002
3.157284e+002,3.233578e+002
3.166926e+002,3.241998e+002
3.176569e+002,3.256350e+002
3.186211e+002,3.255071e+002
3.195853e+002,3.237078e+002
3.205496e+002,3.212350e+002
3.215138e+002,3.207540e+002
3.224780e+002,3.231350e+002
3.234423e+002,3.244825e+002
3.244065e+002,3.239169e+002
3.253707e+002,3.220409e+002
3.263350e+002,3.210725e+002
3.272992e+002,3.215560e+002
3.282634e+002,3.234964e+002
3.292277e+002,3.282774e+002
3.301919e+002,3.347773e+002
3.311561e+002,3.397456e+002
3.321204e+002,3.383430e+002
3.330846e+002,3.355680e+002
3.340488e+002,3.342920e+002
3.350131e+002,3.348083e+002
3.359773e+002,3.359793e+002
3.369415e+002,3.353342e+002
3.379058e+002,3.335213e+002
3.388700e+002,3.321366e+002
3.398342e+002,3.315783e+002
3.407985e+002,3.318078e+002
3.417627e+002,3.324415e+002
3.427269e+002,3.326338e+002
3.436912e+002,3.331209e+002
3.446554e+002,3.347947e+002
3.456196e+002,3.375699e+002
3.465839e+002,3.396433e+002
3.475481e+002,3.392314e+002
3.485123e+002,3.390248e+002
3.494765e+002,3.399236e+002
3.504408e+002,3.416557e+002
3.514050e+002,3.428387e+002
3.523692e+002,3.408466e+002
3.533335e+002,3.381369e+002
3.542977e+002,3.371539e+002
3.552619e+002,3.386485e+002
3.562262e+002,3.421142e+002
3.571904e+002,3.448385e+002
3.581546e+002,3.463817e+002
3.591189e+002,3.474476e+002
3.600831e+002,3.476644e+002
3.610473e+002,3.470069e+002
3.620116e+002,3.472360e+002
3.629758e+002,3.506112e+002
3.639400e+002,3.533626e+002
3.649043e+002,3.543555e+002
3.658685e+002,3.535361e+002
3.668327e+002,3.520361e+002
3.677970e+002,3.496509e+002
3.687612e+002,3.479765e+002
3.697254e+002,3.481431e+002
3.706897e+002,3.501862e+002
3.716539e+002,3.531377e+002
3.726181e+002,3.546633e+002
3.735824e+002,3.547836e+002
3.745466e+002,3.545871e+002
3.755108e+002,3.545391e+002
3.764751e+002,3.548442e+002
3.774393e+002,3.555258e+002
3.784035e+002,3.568729e+002
3.793678e+002,3.577435e+002
3.803320e+002,3.579216e+002
3.812962e+002,3.575938e+002
3.822605e+002,3.573775e+002
3.832247e+002,3.572690e+002
3.841889e+002,3.573172e+002
3.851532e+002,3.574654e+002
3.861174e+002,3.576865e+002
3.870816e+002,3.580010e+002
3.880459e+002,3.586772e+002
3.890101e+002,3.594120e+002
3.899743e+002,3.599352e+002
3.909386e+002,3.602976e+002
3.919028e+002,3.606932e+002
3.928670e+002,3.613779e+002
3.938313e+002,3.619896e+002
3.947955e+002,3.621005e+002
3.957597e+002,3.614849e+002
3.967240e+002,3.604471e+002
3.976882e+002,3.600031e+002
3.986524e+002,3.612771e+002
3.996167e+002,3.626190e+002
4.005809e+002,3.634702e+002
4.015451e+002,3.636646e+002
4.025094e+002,3.633669e+002
4.034736e+002,3.630645e+002
4.044378e+002,3.630417e+002
4.054021e+002,3.631231e+002
4.063663e+002,3.630941e+002
4.073305e+002,3.626169e+002
4.082948e+002,3.610422e+002
4.092590e+002,3.586889e+002
4.102232e+002,3.585413e+002
4.111875e+002,3.612592e+002
4.121517e+002,3.654516e+002
4.131159e+002,3.679262e+002
4.140802e+002,3.682023e+002
4.150444e+002,3.687805e+002
4.160086e+002,3.691747e+002
4.169729e+002,3.696595e+002
4.179371e+002,3.706528e+002
4.189013e+002,3.718185e+002
4.198656e+002,3.723712e+002
4.208298e+002,3.726589e+002
4.217940e+002,3.729034e+002
4.227583e+002,3.735247e+002
4.237225e+002,3.752165e+002
4.246867e+002,3.777384e+002
4.256510e+002,3.789292e+002
4.266152e+002,3.786037e+002
4.275794e+002,3.774065e+002
4.285437e+002,3.763131e+002
4.295079e+002,3.754413e+002
4.304721e+002,3.746690e+002
4.314364e+002,3.737503e+002
4.324006e+002,3.737062e+002
4.333648e+002,3.757623e+002
4.343291e+002,3.810358e+002
4.352933e+002,3.840730e+002
4.362575e+002,3.827531e+002
4.372218e+002,3.802239e+002
4.381860e+002,3.789180e+002
4.391502e+002,3.801310e+002
4.401145e+002,3.826170e+002
4.410787e+002,3.853773e+002
4.420429e+002,3.884433e+002
4.430072e+002,3.916207e+002
4.439714e+002,3.945867e+002
4.449356e+002,3.968475e+002
4.458999e+002,3.967012e+002
4.468641e+002,3.941997e+002
4.478283e+002,3.918153e+002
4.487926e+002,3.913886e+002
4.497568e+002,3.935773e+002
4.507210e+002,3.953176e+002
4.516853e+002,3.944756e+002
4.526495e+002,3.933300e+002
4.536137e+002,3.926880e+002
4.545780e+002,3.929169e+002
4.555422e+002,3.941380e+002
4.565064e+002,3.993473e+002
4.574707e+002,4.043613e+002
4.584349e+002,4.056628e+002
4.593991e+002,4.026696e+002
4.603634e+002,3.973363e+002
4.613276e+002,3.943381e+002
4.622918e+002,3.936912e+002
4.632561e+002,3.935925e+002
4.642203e+002,3.938193e+002
4.651845e+002,3.943580e+002
4.661488e+002,3.950972e+002
4.671130e+002,3.962929e+002
4.680772e+002,3.965211e+002
4.690415e+002,3.962300e+002
4.700057e+002,3.953272e+002
4.709699e+002,3.931417e+002
4.719342e+002,3.876054e+002
4.728984e+002,3.830041e+002
4.738626e+002,3.816815e+002
4.748269e+002,3.823439e+002
4.757911e+002,3.830445e+002
4.767553e+002,3.819879e+002
4.777196e+002,3.805291e+002
4.786838e+002,3.820220e+002
4.796480e+002,3.855616e+002
4.806123e+002,3.881820e+002
4.815765e+002,3.868315e+002
4.825407e+002,3.804680e+002
4.835050e+002,3.769148e+002
4.844692e+002,3.773677e+002
4.854334e+002,3.789187e+002
4.863977e+002,3.792220e+002
4.873619e+002,3.772740e+002
4.883261e+002,3.751992e+002
4.892904e+002,3.757568e+002
4.902546e+002,3.769272e+002
4.912188e+002,3.768010e+002
4.921831e+002,3.746912e+002
4.931473e+002,3.720658e+002
4.941115e+002,3.728025e+002
4.950758e+002,3.746912e+002
4.960400e+002,3.750320e+002
4.970042e+002,3.730676e+002
4.979685e+002,3.698594e+002
4.989327e+002,3.690555e+002
4.998969e+002,3.708729e+002
5.008612e+002,3.725783e+002
5.018254e+002,3.741242e+002
5.027896e+002,3.752400e+002
5.037539e+002,3.751464e+002
5.047181e+002,3.733906e+002
5.056823e+002,3.720500e+002
5.066466e+002,3.712426e+002
5.076108e+002,3.710551e+002
5.085750e+002,3.714931e+002
5.095393e+002,3.724573e+002
5.105035e+002,3.733443e+002
5.114677e+002,3.743953e+002
5.124320e+002,3.757755e+002
5.133962e+002,3.771866e+002
5.143605e+002,3.781135e+002
5.153247e+002,3.781746e+002
5.162889e+002,3.790977e+002
5.172532e+002,3.815660e+002
5.182174e+002,3.843741e+002
5.191816e+002,3.862162e+002
5.201459e+002,3.864278e+002
5.211101e+002,3.882949e+002
5.220743e+002,3.932590e+002
5.230386e+002,3.980949e+002
5.240028e+002,4.015893e+002
5.249670e+002,4.040887e+002
5.259313e+002,4.076841e+002
5.268955e+002,4.140803e+002
5.278597e+002,4.207068e+002
5.288240e+002,4.266131e+002
5.297882e+002,4.315666e+002
5.307524e+002,4.355566e+002
5.317167e+002,4.383409e+002
5.326809e+002,4.405825e+002
5.336451e+002,4.448438e+002
5.346094e+002,4.511906e+002
5.355736e+002,4.579727e+002
5.365378e+002,4.627507e+002
5.375021e+002,4.646837e+002
5.384663e+002,4.684864e+002
5.394305e+002,4.759466e+002
5.403948e+002,4.841055e+002
5.413590e+002,4.895994e+002
5.423232e+002,4.902517e+002
5.432875e+002,4.902415e+002
5.442517e+002,4.944518e+002
5.452159e+002,5.011407e+002
5.461802e+002,5.085281e+002
5.471444e+002,5.150231e+002
5.481086e+002,5.195612e+002
5.490729e+002,5.199646e+002
5.500371e+002,5.179279e+002
5.510013e+002,5.163279e+002
5.519656e+002,5.159616e+002
5.529298e+002,5.167991e+002
5.538940e+002,5.190093e+002
5.548583e+002,5.236124e+002
5.558225e+002,5.263350e+002
5.567867e+002,5.266167e+002
5.577510e+002,5.252152e+002
5.587152e+002,5.235048e+002
5.596794e+002,5.224545e+002
5.606437e+002,5.216501e+002
5.616079e+002,5.202480e+002
5.625721e+002,5.183499e+002
5.635364e+002,5.162335e+002
5.645006e+002,5.141239e+002
5.654648e+002,5.114917e+002
5.664291e+002,5.074450e+002
5.673933e+002,5.031320e+002
5.683575e+002,4.997075e+002
5.693218e+002,4.972252e+002
5.702860e+002,4.947269e+002
5.712502e+002,4.920534e+002
5.722145e+002,4.902503e+002
5.731787e+002,4.875603e+002
5.741429e+002,4.833734e+002
5.751072e+002,4.784767e+002
5.760714e+002,4.751025e+002
5.770356e+002,4.760934e+002
5.779999e+002,4.773758e+002
5.789641e+002,4.759552e+002
5.799283e+002,4.720118e+002
5.808926e+002,4.669664e+002
5.818568e+002,4.624846e+002
5.828210e+002,4.584282e+002
5.837853e+002,4.542214e+002
5.847495e+002,4.501310e+002
5.857137e+002,4.467532e+002
5.866780e+002,4.448319e+002
5.876422e+002,4.450623e+002
5.886064e+002,4.437048e+002
5.895707e+002,4.397359e+002
5.905349e+002,4.359350e+002
5.914991e+002,4.337195e+002
5.924634e+002,4.329074e+002
5.934276e+002,4.313664e+002
5.943918e+002,4.271714e+002
5.953560e+002,4.228619e+002
5.963203e+002,4.194425e+002
5.972845e+002,4.167652e+002
5.982487e+002,4.141006e+002
5.992130e+002,4.108338e+002
6.001772e+002,4.077061e+002
6.011414e+002,4.049753e+002
6.021057e+002,4.017751e+002
6.030699e+002,3.976031e+002
6.040341e+002,3.921617e+002
6.049984e+002,3.851042e+002
6.059626e+002,3.797168e+002
6.069268e+002,3.779964e+002
6.078911e+002,3.771095e+002
6.088553e+002,3.746268e+002
6.098195e+002,3.697688e+002
6.107838e+002,3.649475e+002
6.117480e+002,3.636648e+002
6.127122e+002,3.628001e+002
6.136765e+002,3.601736e+002
6.146407e+002,3.554835e+002
6.156049e+002,3.497480e+002
6.165692e+002,3.446821e+002
6.175334e+002,3.404994e+002
6.184976e+002,3.365402e+002
6.194619e+002,3.330852e+002
6.204261e+002,3.299009e+002
6.213903e+002,3.262137e+002
6.223546e+002,3.206488e+002
6.233188e+002,3.174490e+002
6.242830e+002,3.181962e+002
6.252473e+002,3.188969e+002
6.262115e+002,3.172797e+002
6.271757e+002,3.131552e+002
6.281400e+002,3.086323e+002
6.291042e+002,3.047860e+002
6.300684e+002,3.014541e+002
6.310327e+002,2.989541e+002
6.319969e+002,2.970288e+002
6.329611e+002,2.948613e+002
6.339254e+002,2.911405e+002
6.348896e+002,2.855401e+002
6.358538e+002,2.807198e+002
6.368181e+002,2.770517e+002
6.377823e+002,2.741990e+002
6.387465e+002,2.718354e+002
6.397108e+002,2.702489e+002
6.406750e+002,2.684765e+002
6.416392e+002,2.655125e+002
6.426035e+002,2.623518e+002
6.435677e+002,2.597599e+002
6.445319e+002,2.579218e+002
6.454962e+002,2.563073e+002
6.464604e+002,2.553464e+002
6.474246e+002,2.538172e+002
6.483889e+002,2.497459e+002
6.493531e+002,2.436315e+002
6.503173e+002,2.376358e+002
6.512816e+002,2.347279e+002
6.522458e+002,2.350323e+002
6.532100e+002,2.333171e+002
6.541743e+002,2.292498e+002
6.551385e+002,2.253098e+002
6.561027e+002,2.236812e+002
6.570670e+002,2.247068e+002
6.580312e+002,2.242332e+002
6.589954e+002,2.202965e+002
6.599597e+002,2.159410e+002
6.609239e+002,2.125161e+002
6.618881e+002,2.103221e+002
6.628524e+002,2.089929e+002
6.638166e+002,2.087222e+002
6.647808e+002,2.083786e+002
6.657451e+002,2.063970e+002
6.667093e+002,2.030299e+002
6.676735e+002,1.993467e+002
6.686378e+002,1.964868e+002
6.696020e+002,1.944162e+002
6.705662e+002,1.911916e+002
6.715305e+002,1.865016e+002
6.724947e+002,1.817858e+002
6.734589e+002,1.778784e+002
6.744232e+002,1.750180e+002
6.753874e+002,1.731939e+002
6.763516e+002,1.734053e+002
6.773159e+002,1.733214e+002
6.782801e+002,1.719271e+002
6.792443e+002,1.695265e+002
6.802086e+002,1.669551e+002
6.811728e+002,1.648869e+002
6.821370e+002,1.626033e+002
6.831013e+002,1.593058e+002
6.840655e+002,1.557234e+002
6.850297e+002,1.525970e+002
6.859940e+002,1.502468e+002
6.869582e+002,1.485205e+002
6.879224e+002,1.475467e+002
6.888867e+002,1.481878e+002
6.898509e+002,1.473671e+002
6.908151e+002,1.440444e+002
6.917794e+002,1.393945e+002
6.927436e+002,1.355687e+002
6.937078e+002,1.327641e+002
6.946721e+002,1.307184e+002
6.956363e+002,1.297249e+002
6.966005e+002,1.293364e+002
6.975648e+002,1.290730e+002
6.985290e+002,1.284846e+002
6.994932e+002,1.271338e+002
7.004575e+002,1.243956e+002
7.014217e+002,1.210517e+002
7.023859e+002,1.178378e+002
7.033502e+002,1.150814e+002
7.043144e+002,1.131806e+002
7.052786e+002,1.128005e+002
7.062429e+002,1.146723e+002
7.072071e+002,1.155751e+002
7.081713e+002,1.160228e+002
7.091356e+002,1.158378e+002
7.100998e+002,1.141355e+002
7.110640e+002,1.103354e+002
7.120283e+002,1.073917e+002
7.129925e+002,1.085742e+002
7.139567e+002,1.098700e+002
7.149210e+002,1.086852e+002
7.158852e+002,1.051466e+002
7.168494e+002,1.011924e+002
7.178137e+002,9.910488e+001
7.187779e+002,9.904991e+001
7.197421e+002,9.990430e+001
7.207064e+002,1.016367e+002
7.216706e+002,1.026262e+002
7.226348e+002,1.011103e+002
7.235991e+002,9.663596e+001
7.245633e+002,9.395150e+001
7.255275e+002,9.357555e+001
7.264918e+002,9.313533e+001
7.274560e+002,9.212888e+001
7.284202e+002,9.092558e+001
7.293845e+002,9.031090e+001
7.303487e+002,9.090061e+001
7.313129e+002,9.141391e+001
7.322772e+002,9.093171e+001
7.332414e+002,8.971721e+001
7.342056e+002,8.789833e+001
7.351699e+002,8.570542e+001
7.361341e+002,8.383031e+001
7.370983e+002,8.539947e+001
7.380626e+002,9.048119e+001
7.390268e+002,9.367540e+001
7.399910e+002,9.314108e+001
7.409553e+002,9.038178e+001
7.419195e+002,8.850035e+001
7.428837e+002,8.706837e+001
7.438480e+002,8.631179e+001
7.448122e+002,8.708939e+001
7.457764e+002,8.881284e+001
7.467407e+002,9.144407e+001
7.477049e+002,9.480367e+001
7.486691e+002,9.764741e+001
7.496334e+002,9.714951e+001
7.505976e+002,9.476582e+001
7.515618e+002,9.243942e+001
7.525261e+002,9.073698e+001
7.534903e+002,9.018786e+001
7.544545e+002,9.162103e+001
7.554188e+002,9.610020e+001
7.563830e+002,1.000768e+002
7.573472e+002,1.027158e+002
7.583115e+002,1.043863e+002
7.592757e+002,1.055482e+002
7.602399e+002,1.066325e+002
7.612042e+002,1.079814e+002
7.621684e+002,1.087374e+002
7.631326e+002,1.095310e+002
7.640969e+002,1.110642e+002
7.650611e+002,1.129398e+002
7.660253e+002,1.146481e+002
7.669896e+002,1.159929e+002
7.679538e+002,1.173547e+002
7.689180e+002,1.182300e+002
7.698823e+002,1.179657e+002
7.708465e+002,1.178075e+002
7.718107e+002,1.191282e+002
7.727750e+002,1.215586e+002
7.737392e+002,1.220732e+002
7.747034e+002,1.181196e+002
7.756677e+002,1.161827e+002
7.766319e+002,1.173422e+002
7.775961e+002,1.195224e+002
7.785604e+002,1.209488e+002
7.795246e+002,1.211883e+002
7.804888e+002,1.213372e+002
7.814531e+002,1.235433e+002
7.824173e+002,1.253049e+002
7.833815e+002,1.240450e+002
7.843458e+002,1.202710e+002
7.853100e+002,1.167481e+002
7.862742e+002,1.167271e+002
7.872385e+002,1.200034e+002
7.882027e+002,1.212886e+002
7.891669e+002,1.204175e+002
7.901312e+002,1.182234e+002
7.910954e+002,1.145196e+002
7.920596e+002,1.101002e+002
7.930239e+002,1.087963e+002
7.939881e+002,1.148123e+002
7.949523e+002,1.189758e+002
7.959166e+002,1.170786e+002
7.968808e+002,1.123906e+002
7.978450e+002,1.092050e+002
7.988093e+002,1.097262e+002
7.997735e+002,1.121207e+002
8.007377e+002,1.141392e+002
8.017020e+002,1.155204e+002
8.026662e+002,1.151549e+002
8.036304e+002,1.126180e+002
8.045947e+002,1.089806e+002
8.055589e+002,1.064556e+002
8.065231e+002,1.058305e+002
8.074874e+002,1.042335e+002
8.084516e+002,1.008923e+002
8.094158e+002,9.753756e+001
8.103801e+002,9.556668e+001
8.113443e+002,9.528361e+001
8.123085e+002,9.578324e+001
8.132728e+002,9.662618e+001
8.142370e+002,9.667243e+001
8.152012e+002,9.469761e+001
8.161655e+002,9.117152e+001
8.171297e+002,8.753372e+001
8.180939e+002,8.516594e+001
8.190582e+002,8.439227e+001
8.200224e+002,8.426873e+001
8.209866e+002,8.453178e+001
8.219509e+002,8.384403e+001
8.229151e+002,8.100264e+001
8.238793e+002,7.685582e+001
8.248436e+002,7.347707e+001
8.258078e+002,7.106784e+001
8.267720e+002,6.945365e+001
8.277363e+002,6.899333e+001
8.287005e+002,6.838103e+001
8.296647e+002,6.699210e+001
8.306290e+002,6.491420e+001
8.315932e+002,6.266344e+001
8.325574e+002,6.048305e+001
8.335217e+002,5.836954e+001
8.344859e+002,5.612847e+001
8.354501e+002,5.365509e+001
8.364144e+002,5.121222e+001
8.373786e+002,4.911474e+001
8.383428e+002,4.755302e+001
8.393071e+002,4.708932e+001
8.402713e+002,4.882336e+001
8.412355e+002,5.027102e+001
8.421998e+002,5.089506e+001
8.431640e+002,5.096264e+001
8.441282e+002,5.077074e+001
8.450925e+002,5.025176e+001
8.460567e+002,5.015623e+001
8.470209e+002,5.183907e+001
8.479852e+002,5.345587e+001
8.489494e+002,5.351822e+001
8.499136e+002,5.195049e+001
8.508779e+002,4.963245e+001
8.518421e+002,4.754469e+001
8.528063e+002,4.567299e+001
8.537706e+002,4.479072e+001
8.547348e+002,4.537066e+001
8.556990e+002,4.575895e+001
8.566633e+002,4.432117e+001
8.576275e+002,4.130496e+001
8.585917e+002,3.979473e+001
8.595560e+002,4.209174e+001
8.605202e+002,4.377888e+001
8.614844e+002,4.366315e+001
8.624487e+002,4.269256e+001
8.634129e+002,4.141032e+001
8.643771e+002,3.989729e+001
8.653414e+002,3.848405e+001
8.663056e+002,3.878266e+001
8.672698e+002,4.040438e+001
8.682341e+002,4.096731e+001
8.691983e+002,3.980227e+001
8.701625e+002,3.838790e+001
8.711268e+002,3.874220e+001
8.720910e+002,4.114025e+001
8.730552e+002,4.196444e+001
8.740195e+002,4.180174e+001
8.749837e+002,4.196308e+001
8.759479e+002,4.246022e+001
8.769122e+002,4.283352e+001
8.778764e+002,4.224739e+001
8.788406e+002,3.982825e+001
8.798049e+002,3.762591e+001
8.807691e+002,3.881320e+001
8.817333e+002,4.140240e+001
8.826976e+002,4.303676e+001
8.836618e+002,4.302817e+001
8.846260e+002,4.222319e+001
8.855903e+002,4.198912e+001
8.865545e+002,4.229612e+001
8.875187e+002,4.213021e+001
8.884830e+002,4.109967e+001
8.894472e+002,4.031455e+001
8.904114e+002,4.072907e+001
8.913757e+002,4.216903e+001
8.923399e+002,4.305820e+001
8.933041e+002,4.170438e+001
8.942684e+002,4.088041e+001
8.952326e+002,4.268966e+001
8.961968e+002,4.533241e+001
8.971611e+002,4.683958e+001
8.981253e+002,4.661568e+001
8.990895e+002,4.582731e+001
9.000538e+002,4.597613e+001
9.010180e+002,4.674512e+001
9.019822e+002,4.706794e+001
9.029465e+002,4.677380e+001
9.039107e+002,4.681114e+001
9.048749e+002,4.816470e+001
9.058392e+002,5.082141e+001
9.068034e+002,5.309542e+001
9.077676e+002,5.526201e+001
9.087319e+002,5.688421e+001
9.096961e+002,5.749261e+001
9.106603e+002,5.797802e+001
9.116246e+002,5.926360e+001
9.125888e+002,6.152652e+001
9.135530e+002,6.402454e+001
9.145173e+002,6.598588e+001
9.154815e+002,6.740991e+001
9.164457e+002,6.877443e+001
9.174100e+002,7.046365e+001
9.183742e+002,7.233987e+001
9.193384e+002,7.396981e+001
9.203027e+002,7.522877e+001
9.212669e+002,7.693249e+001
9.222311e+002,7.784896e+001
9.231954e+002,7.892705e+001
9.241596e+002,8.141932e+001
9.251238e+002,8.487386e+001
9.260881e+002,8.823775e+001
9.270523e+002,9.122530e+001
9.280165e+002,9.315767e+001
9.289808e+002,9.241106e+001
9.299450e+002,9.132645e+001
9.309092e+002,9.158319e+001
9.318735e+002,9.340011e+001
9.328377e+002,9.631913e+001
9.338019e+002,9.999224e+001
9.347662e+002,1.043626e+002
9.357304e+002,1.073566e+002
9.366946e+002,1.094449e+002
9.376589e+002,1.111074e+002
9.386231e+002,1.114935e+002
9.395873e+002,1.110916e+002
9.405516e+002,1.116611e+002
9.415158e+002,1.140806e+002
9.424800e+002,1.166937e+002
9.434443e+002,1.192092e+002
9.444085e+002,1.214905e+002
9.453727e+002,1.230874e+002
9.463370e+002,1.241868e+002
9.473012e+002,1.255708e+002
9.482654e+002,1.279575e+002
9.492297e+002,1.305246e+002
9.501939e+002,1.308479e+002
9.511581e+002,1.295690e+002
9.521224e+002,1.291492e+002
9.530866e+002,1.306230e+002
9.540508e+002,1.332300e+002
9.550151e+002,1.355627e+002
9.559793e+002,1.377958e+002
9.569435e+002,1.379823e+002
9.579078e+002,1.359492e+002
9.588720e+002,1.339638e+002
9.598362e+002,1.324457e+002
9.608005e+002,1.315977e+002
9.617647e+002,1.320133e+002
9.627289e+002,1.344216e+002
9.636932e+002,1.375597e+002
9.646574e+002,1.386483e+002
9.656216e+002,1.380639e+002
9.665859e+002,1.375908e+002
9.675501e+002,1.382671e+002
9.685143e+002,1.397265e+002
9.694786e+002,1.407111e+002
9.704428e+002,1.408253e+002
9.714070e+002,1.419599e+002
9.723713e+002,1.429331e+002
9.733355e+002,1.442630e+002
9.742997e+002,1.471018e+002
9.752640e+002,1.513438e+002
9.762282e+002,1.558892e+002
9.771924e+002,1.597701e+002
9.781567e+002,1.632164e+002
9.791209e+002,1.674964e+002
9.800851e+002,1.718030e+002
9.810494e+002,1.746483e+002
9.820136e+002,1.758864e+002
9.829778e+002,1.767277e+002
9.839421e+002,1.786136e+002
9.849063e+002,1.813306e+002
9.858705e+002,1.824053e+002
9.868348e+002,1.812066e+002
9.877990e+002,1.814651e+002
9.887632e+002,1.850937e+002
9.897275e+002,1.902056e+002
9.906917e+002,1.935917e+002
9.916559e+002,1.938202e+002
9.926202e+002,1.919001e+002
9.935844e+002,1.882041e+002
9.945486e+002,1.847658e+002
9.955129e+002,1.832768e+002
9.964771e+002,1.838515e+002
9.974413e+002,1.854927e+002
9.984056e+002,1.870547e+002
9.993698e+002,1.882347e+002
1.000334e+003,1.890986e+002
1.001298e+003,1.901945e+002
1.002263e+003,1.905989e+002
1.003227e+003,1.893592e+002
1.004191e+003,1.877604e+002
1.005155e+003,1.873445e+002
1.006119e+003,1.882554e+002
1.007084e+003,1.892098e+002
1.008048e+003,1.902478e+002
1.009012e+003,1.913688e+002
1.009976e+003,1.912913e+002
1.010941e+003,1.907289e+002
1.011905e+003,1.915752e+002
1.012869e+003,1.949091e+002
1.013833e+003,1.996124e+002
1.014798e+003,2.031000e+002
1.015762e+003,2.057609e+002
1.016726e+003,2.088791e+002
1.017690e+003,2.130309e+002
1.018654e+003,2.168369e+002
1.019619e+003,2.184359e+002
1.020583e+003,2.181070e+002
1.021547e+003,2.192099e+002
1.022511e+003,2.229964e+002
1.023476e+003,2.272052e+002
1.024440e+003,2.319591e+002
1.025404e+003,2.366498e+002
1.026368e+003,2.402994e+002
1.027333e+003,2.428290e+002
1.028297e+003,2.452497e+002
1.029261e+003,2.486104e+002
1.030225e+003,2.525329e+002
1.031190e+003,2.568814e+002
1.032154e+003,2.630243e+002
1.033118e+003,2.684308e+002
1.034082e+003,2.708042e+002
1.035047e+003,2.714319e+002
1.036011e+003,2.734248e+002
1.036975e+003,2.769066e+002
1.037939e+003,2.811695e+002
1.038903e+003,2.879139e+002
1.039868e+003,2.950109e+002
1.040832e+003,3.008103e+002
1.041796e+003,3.053684e+002
1.042760e+003,3.095334e+002
1.043725e+003,3.139072e+002
1.044689e+003,3.180966e+002
1.045653e+003,3.213726e+002
1.046617e+003,3.237531e+002
1.047582e+003,3.256837e+002
1.048546e+003,3.273556e+002
1.049510e+003,3.301307e+002
1.050474e+003,3.353129e+002
1.051438e+003,3.424428e+002
1.052403e+003,3.483177e+002
1.053367e+003,3.508534e+002
1.054331e+003,3.538833e+002
1.055295e+003,3.597571e+002
1.056260e+003,3.664605e+002
1.057224e+003,3.717564e+002
1.058188e+003,3.753925e+002
1.059152e+003,3.790567e+002
1.060117e+003,3.843925e+002
1.061081e+003,3.911001e+002
1.062045e+003,3.981946e+002
1.063009e+003,4.052254e+002
1.063974e+003,4.107130e+002
1.064938e+003,4.136583e+002
1.065902e+003,4.160084e+002
1.066866e+003,4.213854e+002
1.067830e+003,4.303564e+002
1.068795e+003,4.377788e+002
1.069759e+003,4.424727e+002
1.070723e+003,4.463308e+002
1.071687e+003,4.501057e+002
1.072652e+003,4.542573e+002
1.073616e+003,4.586601e+002
1.074580e+003,4.628660e+002
1.075544e+003,4.667829e+002
1.076509e+003,4.711934e+002
1.077473e+003,4.761992e+002
1.078437e+003,4.805165e+002
1.079401e+003,4.839177e+002
1.080365e+003,4.877812e+002
1.081330e+003,4.931838e+002
1.082294e+003,4.996931e+002
1.083258e+003,5.054897e+002
1.084222e+003,5.107025e+002
1.085187e+003,5.150400e+002
1.086151e+003,5.187634e+002
1.087115e+003,5.217769e+002
1.088079e+003,5.230703e+002
1.089043e+003,5.233045e+002
1.090008e+003,5.249230e+002
1.090972e+003,5.299830e+002
1.091936e+003,5.363101e+002
1.092900e+003,5.375294e+002
1.093865e+003,5.343574e+002
1.094829e+003,5.310462e+002
1.095793e+003,5.283349e+002
1.096757e+003,5.268284e+002
1.097722e+003,5.276174e+002
1.098686e+003,5.302515e+002
1.099650e+003,5.298517e+002
1.100614e+003,5.251129e+002
1.101578e+003,5.199525e+002
1.102543e+003,5.139118e+002
1.103507e+003,5.084999e+002
1.104471e+003,5.054275e+002
1.105435e+003,5.041475e+002
1.106400e+003,5.021207e+002
1.107364e+003,4.975179e+002
1.108328e+003,4.915594e+002
1.109292e+003,4.868903e+002
1.110257e+003,4.837440e+002
1.111221e+003,4.804366e+002
1.112185e+003,4.759261e+002
1.113149e+003,4.697174e+002
1.114114e+003,4.609762e+002
1.115078e+003,4.496219e+002
1.116042e+003,4.407542e+002
1.117006e+003,4.388587e+002
1.117970e+003,4.362836e+002
1.118935e+003,4.290749e+002
1.119899e+003,4.194745e+002
1.120863e+003,4.106049e+002
1.121827e+003,4.038199e+002
1.122792e+003,3.985596e+002
1.123756e+003,3.939195e+002
1.124720e+003,3.890406e+002
1.125684e+003,3.821458e+002
1.126649e+003,3.738604e+002
1.127613e+003,3.661692e+002
1.128577e+003,3.591863e+002
1.129541e+003,3.531434e+002
1.130505e+003,3.492632e+002
1.131470e+003,3.479457e+002
1.132434e+003,3.439854e+002
1.133398e+003,3.332180e+002
1.134362e+003,3.229250e+002
1.135327e+003,3.162932e+002
1.136291e+003,3.117773e+002
1.137255e+003,3.070713e+002
1.138219e+003,3.014252e+002
1.139184e+003,2.960389e+002
1.140148e+003,2.925161e+002
1.141112e+003,2.902994e+002
1.142076e+003,2.853435e+002
1.143041e+003,2.774014e+002
1.144005e+003,2.702533e+002
1.144969e+003,2.653940e+002
1.145933e+003,2.618531e+002
1.146897e+003,2.582857e+002
1.147862e+003,2.543107e+002
1.148826e+003,2.495645e+002
1.149790e+003,2.436538e+002
1.150754e+003,2.378625e+002
1.151719e+003,2.330929e+002
1.152683e+003,2.289432e+002
1.153647e+003,2.242607e+002
1.154611e+003,2.188889e+002
1.155576e+003,2.145308e+002
1.156540e+003,2.137227e+002
1.157504e+003,2.162888e+002
1.158468e+003,2.133487e+002
1.159432e+003,2.018051e+002
1.160397e+003,1.919660e+002
1.161361e+003,1.873109e+002
1.162325e+003,1.852552e+002
1.163289e+003,1.825649e+002
1.164254e+003,1.785717e+002
1.165218e+003,1.742322e+002
1.166182e+003,1.698728e+002
1.167146e+003,1.662334e+002
1.168111e+003,1.642410e+002
1.169075e+003,1.628124e+002
1.170039e+003,1.600212e+002
1.171003e+003,1.554010e+002
1.171968e+003,1.506292e+002
1.172932e+003,1.482003e+002
1.173896e+003,1.484366e+002
1.174860e+003,1.466648e+002
1.175824e+003,1.406317e+002
1.176789e+003,1.348860e+002
1.177753e+003,1.298593e+002
1.178717e+003,1.255865e+002
1.179681e+003,1.220389e+002
1.180646e+003,1.191214e+002
1.181610e+003,1.167338e+002
1.182574e+003,1.150635e+002
1.183538e+003,1.133930e+002
1.184503e+003,1.105692e+002
1.185467e+003,1.072534e+002
1.186431e+003,1.045418e+002
1.187395e+003,1.025033e+002
1.188359e+003,1.005305e+002
1.189324e+003,9.836219e+001
1.190288e+003,9.630212e+001
1.191252e+003,9.423717e+001
1.192216e+003,9.175564e+001
1.193181e+003,8.943475e+001
1.194145e+003,8.717635e+001
1.195109e+003,8.459019e+001
1.196073e+003,8.163952e+001
1.197038e+003,7.872784e+001
1.198002e+003,7.636291e+001
1.198966e+003,7.467876e+001
1.199930e+003,7.316464e+001
1.200895e+003,7.118414e+001
1.201859e+003,6.883566e+001
1.202823e+003,6.640185e+001
1.203787e+003,6.374128e+001
1.204751e+003,6.131709e+001
1.205716e+003,5.989088e+001
1.206680e+003,5.898310e+001
1.207644e+003,5.674255e+001
1.208608e+003,5.238688e+001
1.209573e+003,4.916315e+001
1.210537e+003,4.980661e+001
1.211501e+003,5.057641e+001
1.212465e+003,5.014710e+001
1.213430e+003,4.869178e+001
1.214394e+003,4.570869e+001
1.215358e+003,4.114178e+001
1.216322e+003,3.668235e+001
1.217286e+003,3.510970e+001
1.218251e+003,3.634526e+001
1.219215e+003,3.649403e+001
1.220179e+003,3.576809e+001
1.221143e+003,3.503238e+001
1.222108e+003,3.432333e+001
1.223072e+003,3.376919e+001
1.224036e+003,3.319069e+001
1.225000e+003,3.232800e+001
1.225965e+003,3.146933e+001
1.226929e+003,3.077507e+001
1.227893e+003,2.956697e+001
1.228857e+003,2.815401e+001
1.229822e+003,2.745407e+001
1.230786e+003,2.816457e+001
1.231750e+003,2.965425e+001
1.232714e+003,2.992486e+001
1.233678e+003,2.731430e+001
1.234643e+003,2.281989e+001
1.235607e+003,2.081161e+001
1.236571e+003,2.384043e+001
1.237535e+003,2.512761e+001
1.238500e+003,2.295934e+001
1.239464e+003,2.060698e+001
1.240428e+003,1.928922e+001
1.241392e+003,1.853028e+001
1.242357e+003,1.780473e+001
1.243321e+003,1.727204e+001
1.244285e+003,1.723996e+001
1.245249e+003,1.807713e+001
1.246214e+003,1.904338e+001
1.247178e+003,1.818083e+001
1.248142e+003,1.566745e+001
1.249106e+003,1.396846e+001
1.250070e+003,1.447967e+001
1.251035e+003,1.585500e+001
1.251999e+003,1.567961e+001
1.252963e+003,1.376813e+001
1.253927e+003,1.319422e+001
1.254892e+003,1.544648e+001
1.255856e+003,1.739777e+001
1.256820e+003,1.836754e+001
1.257784e+003,1.854709e+001
1.258749e+003,1.767615e+001
1.259713e+003,1.619785e+001
1.260677e+003,1.503832e+001
1.261641e+003,1.472638e+001
1.262605e+003,1.499897e+001
1.263570e+003,1.559864e+001
1.264534e+003,1.661706e+001
1.265498e+003,1.717197e+001
1.266462e+003,1.743977e+001
1.267427e+003,1.714348e+001
1.268391e+003,1.529438e+001
1.269355e+003,1.265224e+001
1.270319e+003,1.104630e+001
1.271284e+003,1.090866e+001
1.272248e+003,1.055368e+001
1.273212e+003,9.375563e+000
1.274176e+003,8.673333e+000
1.275141e+003,8.055875e+000
1.276105e+003,7.281121e+000
1.277069e+003,6.832166e+000
1.278033e+003,7.082300e+000
1.278997e+003,8.105376e+000
1.279962e+003,1.007931e+001
1.280926e+003,1.307711e+001
1.281890e+003,1.560059e+001
1.282854e+003,1.609806e+001
1.283819e+003,1.577259e+001
1.284783e+003,1.509152e+001
1.285747e+003,1.411699e+001
1.286711e+003,1.307928e+001
1.287676e+003,1.226178e+001
1.288640e+003,1.138933e+001
1.289604e+003,1.028135e+001
1.290568e+003,1.006368e+001
1.291532e+003,1.233898e+001
1.292497e+003,1.533278e+001
1.293461e+003,1.487827e+001
1.294425e+003,1.192962e+001
1.295389e+003,1.045990e+001
1.296354e+003,1.197650e+001
1.297318e+003,1.391978e+001
1.298282e+003,1.311148e+001
1.299246e+003,1.006000e+001
1.300211e+003,9.130042e+000
1.301175e+003,1.214423e+001
1.302139e+003,1.485353e+001
1.303103e+003,1.537222e+001
1.304068e+003,1.451095e+001
1.305032e+003,1.227547e+001
1.305996e+003,9.473335e+000
1.306960e+003,7.136707e+000
1.307924e+003,5.916527e+000
1.308889e+003,6.177906e+000
1.309853e+003,8.168466e+000
1.310817e+003,1.101162e+001
1.311781e+003,1.091085e+001
1.312746e+003,7.121180e+000
1.313710e+003,5.048783e+000
1.314674e+003,5.649475e+000
1.315638e+003,7.043738e+000
1.316603e+003,7.501288e+000
1.317567e+003,6.980438e+000
1.318531e+003,6.847276e+000
1.319495e+003,8.248713e+000
1.320459e+003,1.048669e+001
1.321424e+003,1.238952e+001
1.322388e+003,1.341239e+001
1.323352e+003,1.312752e+001
1.324316e+003,1.191314e+001
1.325281e+003,1.156930e+001
1.326245e+003,1.316807e+001
1.327209e+003,1.493517e+001
1.328173e+003,1.388629e+001
1.329138e+003,1.004321e+001
1.330102e+003,8.077137e+000
1.331066e+003,9.384250e+000
1.332030e+003,1.128822e+001
1.332995e+003,1.344133e+001
1.333959e+003,1.478467e+001
1.334923e+003,1.418758e+001
1.335887e+003,1.232571e+001
1.336851e+003,1.070700e+001
1.337816e+003,1.020474e+001
1.338780e+003,1.054597e+001
1.339744e+003,1.101745e+001
1.340708e+003,1.119693e+001
1.341673e+003,1.068701e+001
1.342637e+003,9.165665e+000
1.343601e+003,8.022367e+000
1.344565e+003,8.405003e+000
1.345530e+003,8.964877e+000
1.346494e+003,7.765955e+000
1.347458e+003,5.809152e+000
1.348422e+003,6.370713e+000
1.349386e+003,1.035689e+001
1.350351e+003,1.366410e+001
1.351315e+003,1.314465e+001
1.352279e+003,1.091492e+001
1.353243e+003,1.019733e+001
1.354208e+003,1.062183e+001
1.355172e+003,9.992362e+000
1.356136e+003,6.915988e+000
1.357100e+003,3.748054e+000
1.358065e+003,3.991245e+000
1.359029e+003,7.357842e+000
1.359993e+003,9.461188e+000
1.360957e+003,9.861951e+000
1.361922e+003,1.036549e+001
1.362886e+003,1.184210e+001
1.363850e+003,1.301433e+001
1.364814e+003,1.238626e+001
1.365778e+003,1.089556e+001
1.366743e+003,1.054360e+001
1.367707e+003,1.171848e+001
1.368671e+003,1.271776e+001
1.369635e+003,1.190831e+001
1.370600e+003,1.009208e+001
1.371564e+003,9.489167e+000
1.372528e+003,1.014387e+001
1.373492e+003,1.072161e+001
1.374457e+003,1.120393e+001
1.375421e+003,1.116977e+001
1.376385e+003,1.000005e+001
1.377349e+003,8.883660e+000
1.378313e+003,9.738152e+000
1.379278e+003,1.240221e+001
1.380242e+003,1.426157e+001
1.381206e+003,1.383967e+001
1.382170e+003,1.251267e+001
1.383135e+003,1.185321e+001
1.384099e+003,1.169442e+001
1.385063e+003,1.148343e+001
1.386027e+003,1.056638e+001
1.386992e+003,9.702847e+000
1.387956e+003,1.054646e+001
1.388920e+003,1.224005e+001
1.389884e+003,1.217007e+001
1.390849e+003,1.030847e+001
1.391813e+003,9.947101e+000
1.392777e+003,1.220755e+001
1.393741e+003,1.341404e+001
1.394705e+003,1.185343e+001
1.395670e+003,1.017184e+001
1.396634e+003,1.030604e+001
1.397598e+003,1.154204e+001
1.398562e+003,1.218911e+001
1.399527e+003,1.167259e+001
1.400491e+003,1.066785e+001
1.401455e+003,9.704175e+000
1.402419e+003,8.688736e+000
1.403384e+003,8.862804e+000
1.404348e+003,1.101056e+001
1.405312e+003,1.164360e+001
1.406276e+003,9.807633e+000
1.407240e+003,9.609297e+000
1.408205e+003,1.452619e+001
1.409169e+003,2.083931e+001
1.410133e+003,2.210671e+001
1.411097e+003,1.704836e+001
1.412062e+003,1.101680e+001
1.413026e+003,9.164490e+000
1.413990e+003,1.068601e+001
1.414954e+003,1.158106e+001
1.415919e+003,1.129709e+001
1.416883e+003,1.099328e+001
1.417847e+003,9.748230e+000
1.418811e+003,9.179325e+000
1.419776e+003,1.108612e+001
1.420740e+003,1.395153e+001
1.421704e+003,1.544974e+001
1.422668e+003,1.550403e+001
1.423632e+003,1.533347e+001
1.424597e+003,1.538976e+001
1.425561e+003,1.512562e+001
1.426525e+003,1.353145e+001
1.427489e+003,1.160896e+001
1.428454e+003,1.061597e+001
1.429418e+003,1.062761e+001
1.430382e+003,1.139572e+001
1.431346e+003,1.275067e+001
1.432311e+003,1.380154e+001
1.433275e+003,1.395005e+001
1.434239e+003,1.388018e+001
1.435203e+003,1.396362e+001
1.436167e+003,1.344561e+001
1.437132e+003,1.296409e+001
1.438096e+003,1.262112e+001
1.439060e+003,1.217279e+001
1.440024e+003,1.220547e+001
1.440989e+003,1.266222e+001
1.441953e+003,1.272992e+001
1.442917e+003,1.198347e+001
1.443881e+003,1.094666e+001
1.444846e+003,1.044800e+001
1.445810e+003,1.073167e+001
1.446774e+003,1.148513e+001
1.447738e+003,1.243566e+001
1.448703e+003,1.301888e+001
1.449667e+003,1.325669e+001
1.450631e+003,1.343938e+001
1.451595e+003,1.399749e+001
1.452559e+003,1.476067e+001
1.453524e+003,1.529508e+001
1.454488e+003,1.559169e+001
1.455452e+003,1.594970e+001
1.456416e+003,1.644320e+001
1.457381e+003,1.677458e+001
1.458345e+003,1.662444e+001
1.459309e+003,1.596143e+001
1.460273e+003,1.547943e+001
1.461238e+003,1.589996e+001
1.462202e+003,1.663749e+001
1.463166e+003,1.796053e+001
1.464130e+003,1.897380e+001
1.465094e+003,1.804524e+001
1.466059e+003,1.597910e+001
1.467023e+003,1.519059e+001
1.467987e+003,1.618730e+001
1.468951e+003,1.678752e+001
1.469916e+003,1.587766e+001
1.470880e+003,1.498170e+001
1.471844e+003,1.478319e+001
1.472808e+003,1.464497e+001
1.473773e+003,1.563029e+001
1.474737e+003,1.839190e+001
1.475701e+003,2.027368e+001
1.476665e+003,1.955108e+001
1.477630e+003,1.822503e+001
1.478594e+003,1.820017e+001
1.479558e+003,1.896297e+001
1.480522e+003,2.002147e+001
1.481486e+003,2.186818e+001
1.482451e+003,2.304745e+001
1.483415e+003,2.222258e+001
1.484379e+003,2.104045e+001
1.485343e+003,2.052250e+001
1.486308e+003,2.088425e+001
1.487272e+003,2.285377e+001
1.488236e+003,2.620781e+001
1.489200e+003,2.837117e+001
1.490165e+003,2.692277e+001
1.491129e+003,2.349670e+001
1.492093e+003,2.214496e+001
1.493057e+003,2.322638e+001
1.494021e+003,2.500774e+001
1.494986e+003,2.889970e+001
1.495950e+003,3.097481e+001
1.496914e+003,2.729454e+001
1.497878e+003,2.357466e+001
1.498843e+003,2.445175e+001
1.499807e+003,2.811424e+001
1.500771e+003,3.079771e+001
1.501735e+003,3.138322e+001
1.502700e+003,3.148453e+001
1.503664e+003,3.252492e+001
1.504628e+003,3.396013e+001
1.505592e+003,3.456752e+001
1.506557e+003,3.462053e+001
1.507521e+003,3.463372e+001
1.508485e+003,3.353449e+001
1.509449e+003,3.313348e+001
1.510413e+003,3.390167e+001
1.511378e+003,3.501921e+001
1.512342e+003,3.668685e+001
1.513306e+003,3.833984e+001
1.514270e+003,3.870711e+001
1.515235e+003,3.740708e+001
1.516199e+003,3.538225e+001
1.517163e+003,3.363885e+001
1.518127e+003,3.230376e+001
1.519092e+003,3.131870e+001
1.520056e+003,3.047933e+001
1.521020e+003,2.980603e+001
1.521984e+003,2.948745e+001
1.522948e+003,2.897905e+001
1.523913e+003,2.871222e+001
1.524877e+003,2.840577e+001
1.525841e+003,2.658247e+001
1.526805e+003,2.430487e+001
1.527770e+003,2.505321e+001
1.528734e+003,2.937631e+001
1.529698e+003,3.232294e+001
1.530662e+003,2.957840e+001
1.531627e+003,2.393956e+001
1.532591e+003,2.227532e+001
1.533555e+003,2.517957e+001
1.534519e+003,2.665710e+001
1.535484e+003,2.597459e+001
1.536448e+003,2.504471e+001
1.537412e+003,2.437073e+001
1.538376e+003,2.346628e+001
1.539340e+003,2.163159e+001
1.540305e+003,1.955323e+001
1.541269e+003,1.901070e+001
1.542233e+003,2.022774e+001
1.543197e+003,2.073298e+001
1.544162e+003,1.850720e+001
1.545126e+003,1.514518e+001
1.546090e+003,1.445277e+001
1.547054e+003,1.669944e+001
1.548019e+003,1.839520e+001
1.548983e+003,1.760749e+001
1.549947e+003,1.688325e+001
1.550911e+003,1.798457e+001
1.551875e+003,1.978277e+001
1.552840e+003,2.192479e+001
1.553804e+003,2.428145e+001
1.554768e+003,2.475609e+001
1.555732e+003,2.230402e+001
1.556697e+003,1.941628e+001
1.557661e+003,1.769601e+001
1.558625e+003,1.673447e+001
1.559589e+003,1.585305e+001
1.560554e+003,1.524653e+001
1.561518e+003,1.579253e+001
1.562482e+003,1.768807e+001
1.563446e+003,1.827996e+001
1.564411e+003,1.492335e+001
1.565375e+003,1.124245e+001
1.566339e+003,1.190072e+001
1.567303e+003,1.562984e+001
1.568267e+003,1.803163e+001
1.569232e+003,1.838171e+001
1.570196e+003,1.823495e+001
1.571160e+003,1.829211e+001
1.572124e+003,1.798940e+001
1.573089e+003,1.659568e+001
1.574053e+003,1.519200e+001
1.575017e+003,1.501292e+001
1.575981e+003,1.593638e+001
1.576946e+003,1.730294e+001
1.577910e+003,1.881196e+001
1.578874e+003,1.975602e+001
1.579838e+003,2.016632e+001
1.580802e+003,2.046511e+001
1.581767e+003,1.975583e+001
1.582731e+003,1.727958e+001
1.583695e+003,1.542258e+001
1.584659e+003,1.531375e+001
1.585624e+003,1.533601e+001
1.586588e+003,1.500340e+001
1.587552e+003,1.487117e+001
1.588516e+003,1.496958e+001
1.589481e+003,1.505639e+001
1.590445e+003,1.464539e+001
1.591409e+003,1.326227e+001
1.592373e+003,1.218493e+001
1.593338e+003,1.341893e+001
1.594302e+003,1.607644e+001
1.595266e+003,1.727856e+001
1.596230e+003,1.707919e+001
1.597194e+003,1.781486e+001
1.598159e+003,2.010809e+001
1.599123e+003,2.198486e+001
1.600087e+003,2.273663e+001
1.601051e+003,2.258751e+001
1.602016e+003,2.069766e+001
1.602980e+003,1.795160e+001
1.603944e+003,1.705173e+001
1.604908e+003,1.882574e+001
1.605873e+003,2.066176e+001
1.606837e+003,2.061428e+001
1.607801e+003,1.971914e+001
1.608765e+003,1.922066e+001
1.609729e+003,1.862256e+001
1.610694e+003,1.766521e+001
1.611658e+003,1.647579e+001
1.612622e+003,1.616307e+001
1.613586e+003,1.817151e+001
1.614551e+003,2.063307e+001
1.615515e+003,2.186739e+001
1.616479e+003,2.175679e+001
1.617443e+003,1.979609e+001
1.618408e+003,1.665929e+001
1.619372e+003,1.537241e+001
1.620336e+003,1.772638e+001
1.621300e+003,2.096529e+001
1.622265e+003,2.177085e+001
1.623229e+003,2.087431e+001
1.624193e+003,2.125273e+001
1.625157e+003,2.295030e+001
1.626121e+003,2.212552e+001
1.627086e+003,1.658985e+001
1.628050e+003,1.227562e+001
1.629014e+003,1.357520e+001
1.629978e+003,1.656057e+001
1.630943e+003,1.832224e+001
1.631907e+003,1.899004e+001
1.632871e+003,1.903465e+001
1.633835e+003,1.880631e+001
1.634800e+003,1.897835e+001
1.635764e+003,2.021197e+001
1.636728e+003,2.183071e+001
1.637692e+003,2.219536e+001
1.638656e+003,2.127063e+001
1.639621e+003,2.102479e+001
1.640585e+003,2.179042e+001
1.641549e+003,2.215162e+001
1.642513e+003,2.223602e+001
1.643478e+003,2.243937e+001
1.644442e+003,2.230195e+001
1.645406e+003,2.193247e+001
1.646370e+003,2.168817e+001
1.647335e+003,2.138960e+001
1.648299e+003,2.050325e+001
1.649263e+003,1.861726e+001
1.650227e+003,1.751117e+001
1.651192e+003,1.983171e+001
1.652156e+003,2.335867e+001
1.653120e+003,2.337328e+001
1.654084e+003,2.043172e+001
1.655048e+003,1.905948e+001
1.656013e+003,2.020573e+001
1.656977e+003,2.277067e+001
1.657941e+003,2.734342e+001
1.658905e+003,3.061440e+001
1.659870e+003,2.730188e+001
1.660834e+003,2.089548e+001
1.661798e+003,1.845221e+001
1.662762e+003,2.046383e+001
1.663727e+003,2.234037e+001
1.664691e+003,2.242826e+001
1.665655e+003,2.155009e+001
1.666619e+003,1.989499e+001
1.667583e+003,1.827315e+001
1.668548e+003,1.788757e+001
1.669512e+003,1.849508e+001
1.670476e+003,1.963994e+001
1.671440e+003,2.170001e+001
1.672405e+003,2.404060e+001
1.673369e+003,2.610426e+001
1.674333e+003,2.729432e+001
1.675297e+003,2.597766e+001
1.676262e+003,2.269511e+001
1.677226e+003,2.102259e+001
1.678190e+003,2.164597e+001
1.679154e+003,2.249340e+001
1.680119e+003,2.297724e+001
1.681083e+003,2.315327e+001
1.682047e+003,2.306422e+001
1.683011e+003,2.292023e+001
1.683975e+003,2.309264e+001
1.684940e+003,2.373214e+001
1.685904e+003,2.446655e+001
1.686868e+003,2.499337e+001
1.687832e+003,2.623576e+001
1.688797e+003,2.924504e+001
1.689761e+003,3.255785e+001
1.690725e+003,3.314408e+001
1.691689e+003,3.091434e+001
1.692654e+003,2.901674e+001
1.693618e+003,2.734258e+001
1.694582e+003,2.725648e+001
1.695546e+003,2.945194e+001
1.696510e+003,3.141704e+001
1.697475e+003,3.196300e+001
1.698439e+003,3.171807e+001
1.699403e+003,3.111229e+001
1.700367e+003,3.055789e+001
1.701332e+003,3.108612e+001
1.702296e+003,3.307407e+001
1.703260e+003,3.506732e+001
1.704224e+003,3.519319e+001
1.705189e+003,3.392849e+001
1.706153e+003,3.431252e+001
1.707117e+003,3.697548e+001
1.708081e+003,3.774097e+001
1.709046e+003,3.705107e+001
1.710010e+003,3.702340e+001
1.710974e+003,3.670690e+001
1.711938e+003,3.653529e+001
1.712902e+003,3.683321e+001
1.713867e+003,3.720425e+001
1.714831e+003,3.775418e+001
1.715795e+003,3.882051e+001
1.716759e+003,4.042933e+001
1.717724e+003,4.232225e+001
1.718688e+003,4.393696e+001
1.719652e+003,4.456016e+001
1.720616e+003,4.420208e+001
1.721581e+003,4.372730e+001
1.722545e+003,4.330548e+001
1.723509e+003,4.275378e+001
1.724473e+003,4.158904e+001
1.725438e+003,4.159415e+001
1.726402e+003,4.433973e+001
1.727366e+003,4.645151e+001
1.728330e+003,4.601183e+001
1.729294e+003,4.433008e+001
1.730259e+003,4.278877e+001
1.731223e+003,4.173195e+001
1.732187e+003,4.128668e+001
1.733151e+003,4.132097e+001
1.734116e+003,4.109499e+001
1.735080e+003,4.026233e+001
1.736044e+003,3.931197e+001
1.737008e+003,3.815757e+001
1.737973e+003,3.665776e+001
1.738937e+003,3.679271e+001
1.739901e+003,3.917741e+001
1.740865e+003,4.138431e+001
1.741829e+003,4.275135e+001
1.742794e+003,4.345018e+001
1.743758e+003,4.342421e+001
1.744722e+003,4.295963e+001
1.745686e+003,4.213359e+001
1.746651e+003,4.099572e+001
1.747615e+003,4.026775e+001
1.748579e+003,4.009215e+001
1.749543e+003,3.987607e+001
1.750508e+003,3.920106e+001
1.751472e+003,3.888517e+001
1.752436e+003,4.008570e+001
1.753400e+003,4.171163e+001
1.754365e+003,4.138632e+001
1.755329e+003,3.917948e+001
1.756293e+003,3.759909e+001
1.757257e+003,3.779842e+001
1.758221e+003,3.819922e+001
1.759186e+003,3.711844e+001
1.760150e+003,3.591370e+001
1.761114e+003,3.751553e+001
1.762078e+003,4.159793e+001
1.763043e+003,4.440544e+001
1.764007e+003,4.641624e+001
1.764971e+003,4.602896e+001
1.765935e+003,4.258693e+001
1.766900e+003,3.909893e+001
1.767864e+003,3.608505e+001
1.768828e+003,3.412579e+001
1.769792e+003,3.436951e+001
1.770756e+003,3.620967e+001
1.771721e+003,3.775900e+001
1.772685e+003,3.806649e+001
1.773649e+003,3.782343e+001
1.774613e+003,3.811785e+001
1.775578e+003,3.870541e+001
1.776542e+003,3.790343e+001
1.777506e+003,3.555757e+001
1.778470e+003,3.537539e+001
1.779435e+003,3.828329e+001
1.780399e+003,3.975601e+001
1.781363e+003,3.860793e+001
1.782327e+003,3.802949e+001
1.783292e+003,3.896880e+001
1.784256e+003,3.979836e+001
1.785220e+003,3.982627e+001
1.786184e+003,3.955920e+001
1.787148e+003,3.951576e+001
1.788113e+003,3.947865e+001
1.789077e+003,3.854096e+001
1.790041e+003,3.588953e+001
1.791005e+003,3.323704e+001
1.791970e+003,3.341347e+001
1.792934e+003,3.511119e+001
1.793898e+003,3.468152e+001
1.794862e+003,3.231557e+001
1.795827e+003,3.013021e+001
1.796791e+003,2.833480e+001
1.797755e+003,2.799562e+001
1.798719e+003,3.020539e+001
1.799683e+003,3.300712e+001
1.800648e+003,3.417207e+001
1.801612e+003,3.388895e+001
1.802576e+003,3.323077e+001
1.803540e+003,3.206977e+001
1.804505e+003,3.090296e+001
1.805469e+003,3.097547e+001
1.806433e+003,3.124700e+001
1.807397e+003,3.000907e+001
1.808362e+003,2.913044e+001
1.809326e+003,3.068577e+001
1.810290e+003,3.306055e+001
1.811254e+003,3.401106e+001
1.812219e+003,3.370394e+001
1.813183e+003,3.342257e+001
1.814147e+003,3.331575e+001
1.815111e+003,3.252972e+001
1.816075e+003,3.089616e+001
1.817040e+003,2.938673e+001
1.818004e+003,2.874906e+001
1.818968e+003,2.897448e+001
1.819932e+003,3.107452e+001
1.820897e+003,3.519556e+001
1.821861e+003,3.703265e+001
1.822825e+003,3.578093e+001
1.823789e+003,3.353745e+001
1.824754e+003,3.086024e+001
1.825718e+003,2.919687e+001
1.826682e+003,2.883587e+001
1.827646e+003,2.918660e+001
1.828610e+003,3.024001e+001
1.829575e+003,3.190657e+001
1.830539e+003,3.309047e+001
1.831503e+003,3.326312e+001
1.832467e+003,3.310227e+001
1.833432e+003,3.302552e+001
1.834396e+003,3.278562e+001
1.835360e+003,3.266820e+001
1.836324e+003,3.287933e+001
1.837289e+003,3.184241e+001
1.838253e+003,2.919043e+001
1.839217e+003,2.900786e+001
1.840181e+003,3.330283e+001
1.841146e+003,3.655494e+001
1.842110e+003,3.400632e+001
1.843074e+003,2.927814e+001
1.844038e+003,2.894007e+001
1.845002e+003,3.271975e+001
1.845967e+003,3.498043e+001
1.846931e+003,3.473176e+001
1.847895e+003,3.519147e+001
1.848859e+003,3.659629e+001
1.849824e+003,3.650251e+001
1.850788e+003,3.375034e+001
1.851752e+003,3.091174e+001
1.852716e+003,3.024341e+001
1.853681e+003,3.129023e+001
1.854645e+003,3.280433e+001
1.855609e+003,3.399224e+001
1.856573e+003,3.408561e+001
1.857537e+003,3.260835e+001
1.858502e+003,3.064726e+001
1.859466e+003,2.999396e+001
1.860430e+003,3.068996e+001
1.861394e+003,3.144003e+001
1.862359e+003,3.186672e+001
1.863323e+003,3.233815e+001
1.864287e+003,3.279670e+001
1.865251e+003,3.302757e+001
1.866216e+003,3.346254e+001
1.867180e+003,3.442515e+001
1.868144e+003,3.561511e+001
1.869108e+003,3.634840e+001
1.870073e+003,3.641334e+001
1.871037e+003,3.611543e+001
1.872001e+003,3.569006e+001
1.872965e+003,3.533287e+001
1.873929e+003,3.499147e+001
1.874894e+003,3.291319e+001
1.875858e+003,3.205512e+001
1.876822e+003,3.495547e+001
1.877786e+003,3.854715e+001
1.878751e+003,4.125223e+001
1.879715e+003,4.284231e+001
1.880679e+003,4.285756e+001
1.881643e+003,4.143340e+001
1.882608e+003,3.882546e+001
1.883572e+003,3.550371e+001
1.884536e+003,3.311768e+001
1.885500e+003,3.284102e+001
1.886464e+003,3.373207e+001
1.887429e+003,3.510970e+001
1.888393e+003,3.710560e+001
1.889357e+003,3.760076e+001
1.890321e+003,3.625174e+001
1.891286e+003,3.570251e+001
1.892250e+003,3.621120e+001
1.893214e+003,3.678165e+001
1.894178e+003,3.808353e+001
1.895143e+003,3.890672e+001
1.896107e+003,3.647092e+001
1.897071e+003,3.307015e+001
1.898035e+003,3.431549e+001
1.899000e+003,3.874979e+001
1.899964e+003,3.932647e+001
1.900928e+003,3.552785e+001
1.901892e+003,3.344894e+001
1.902856e+003,3.452377e+001
1.903821e+003,3.575693e+001
1.904785e+003,3.498458e+001
1.905749e+003,3.357477e+001
1.906713e+003,3.406944e+001
1.907678e+003,3.584760e+001
1.908642e+003,3.662185e+001
1.909606e+003,3.596531e+001
1.910570e+003,3.516491e+001
1.911535e+003,3.495727e+001
1.912499e+003,3.468230e+001
1.913463e+003,3.316520e+001
1.914427e+003,3.082185e+001
1.915391e+003,3.012895e+001
1.916356e+003,3.141975e+001
1.917320e+003,3.213937e+001
1.918284e+003,3.233397e+001
1.919248e+003,3.276512e+001
1.920213e+003,3.262907e+001
1.921177e+003,3.282981e+001
1.922141e+003,3.466902e+001
1.923105e+003,3.672894e+001
1.924070e+003,3.755154e+001
1.925034e+003,3.722636e+001
1.925998e+003,3.575653e+001
1.926962e+003,3.310120e+001
1.927927e+003,3.094398e+001
1.928891e+003,2.905017e+001
1.929855e+003,2.868407e+001
1.930819e+003,3.133682e+001
1.931783e+003,3.342194e+001
1.932748e+003,3.350454e+001
1.933712e+003,3.266905e+001
1.934676e+003,3.132183e+001
1.935640e+003,2.987671e+001
1.936605e+003,2.838458e+001
1.937569e+003,2.696618e+001
1.938533e+003,2.699228e+001
1.939497e+003,2.959840e+001
1.940462e+003,3.258030e+001
1.941426e+003,3.288135e+001
1.942390e+003,3.169850e+001
1.943354e+003,3.170407e+001
1.944318e+003,3.197177e+001
1.945283e+003,3.073024e+001
1.946247e+003,2.875758e+001
1.947211e+003,2.733330e+001
1.948175e+003,2.669857e+001
1.949140e+003,2.687865e+001
1.950104e+003,2.740760e+001
1.951068e+003,2.760866e+001
1.952032e+003,2.723299e+001
1.952997e+003,2.687264e+001
1.953961e+003,2.779731e+001
1.954925e+003,3.022863e+001
1.955889e+003,3.067130e+001
1.956854e+003,2.756921e+001
1.957818e+003,2.566537e+001
1.958782e+003,2.591062e+001
1.959746e+003,2.700200e+001
1.960710e+003,2.819390e+001
1.961675e+003,2.877476e+001
1.962639e+003,2.882053e+001
1.963603e+003,2.873585e+001
1.964567e+003,2.850480e+001
1.965532e+003,2.823603e+001
1.966496e+003,2.880911e+001
1.967460e+003,3.062748e+001
1.968424e+003,3.150456e+001
1.969389e+003,2.939732e+001
1.970353e+003,2.691715e+001
1.971317e+003,2.627132e+001
1.972281e+003,2.659503e+001
1.973245e+003,2.696889e+001
1.974210e+003,2.753764e+001
1.975174e+003,2.868854e+001
1.976138e+003,3.011414e+001
1.977102e+003,3.054908e+001
1.978067e+003,2.945484e+001
1.979031e+003,2.841253e+001
1.979995e+003,2.907810e+001
1.980959e+003,3.014027e+001
1.981924e+003,2.894333e+001
1.982888e+003,2.623394e+001
1.983852e+003,2.544794e+001
1.984816e+003,2.640772e+001
1.985781e+003,2.704963e+001
1.986745e+003,2.770093e+001
1.987709e+003,2.785350e+001
1.988673e+003,2.630458e+001
1.989637e+003,2.525457e+001
1.990602e+003,2.693684e+001
1.991566e+003,2.894107e+001
1.992530e+003,2.779197e+001
1.993494e+003,2.478086e+001
1.994459e+003,2.440103e+001
1.995423e+003,2.694179e+001
1.996387e+003,2.890045e+001
1.997351e+003,3.013706e+001
1.998316e+003,3.028595e+001
1.999280e+003,2.888680e+001
2.000244e+003,2.816348e+001
2.001208e+003,3.009501e+001
2.002172e+003,3.217667e+001
2.003137e+003,3.077780e+001
2.004101e+003,2.756355e+001
2.005065e+003,2.683446e+001
2.006029e+003,2.908626e+001
2.006994e+003,3.119889e+001
2.007958e+003,3.161737e+001
2.008922e+003,3.083112e+001
2.009886e+003,2.940912e+001
2.010851e+003,2.825720e+001
2.011815e+003,2.732280e+001
2.012779e+003,2.681912e+001
2.013743e+003,2.759998e+001
2.014708e+003,2.909531e+001
2.015672e+003,3.019152e+001
2.016636e+003,3.078717e+001
2.017600e+003,3.108393e+001
2.018564e+003,3.103998e+001
2.019529e+003,3.068463e+001
2.020493e+003,3.031364e+001
2.021457e+003,3.036666e+001
2.022421e+003,3.137304e+001
2.023386e+003,3.264717e+001
2.024350e+003,3.140316e+001
2.025314e+003,2.782969e+001
2.026278e+003,2.629356e+001
2.027243e+003,2.756363e+001
2.028207e+003,2.991457e+001
2.029171e+003,3.288483e+001
2.030135e+003,3.533945e+001
2.031099e+003,3.658374e+001
2.032064e+003,3.646157e+001
2.033028e+003,3.435428e+001
2.033992e+003,3.037608e+001
2.034956e+003,2.791905e+001
2.035921e+003,2.850626e+001
2.036885e+003,2.960207e+001
2.037849e+003,3.179052e+001
2.038813e+003,3.374453e+001
2.039778e+003,3.320671e+001
2.040742e+003,3.150464e+001
2.041706e+003,2.951094e+001
2.042670e+003,2.826405e+001
2.043635e+003,2.906501e+001
2.044599e+003,3.052447e+001
2.045563e+003,3.037797e+001
2.046527e+003,2.881306e+001
2.047491e+003,2.724534e+001
2.048456e+003,2.597504e+001
2.049420e+003,2.543959e+001
2.050384e+003,2.444905e+001
2.051348e+003,2.426003e+001
2.052313e+003,2.652174e+001
2.053277e+003,2.976427e+001
2.054241e+003,3.430032e+001
2.055205e+003,3.836615e+001
2.056170e+003,3.835464e+001
2.057134e+003,3.503361e+001
2.058098e+003,3.256353e+001
2.059062e+003,3.224230e+001
2.060027e+003,3.131047e+001
2.060991e+003,2.778507e+001
2.061955e+003,2.489479e+001
2.062919e+003,2.657628e+001
2.063884e+003,2.921431e+001
2.064848e+003,2.851463e+001
2.065812e+003,2.652917e+001
2.066776e+003,2.567657e+001
2.067740e+003,2.577887e+001
2.068705e+003,2.699687e+001
2.069669e+003,2.908810e+001
2.070633e+003,3.075068e+001
2.071597e+003,3.122355e+001
2.072562e+003,3.020423e+001
2.073526e+003,2.780526e+001
2.074490e+003,2.596536e+001
2.075454e+003,2.697025e+001
2.076418e+003,2.963095e+001
2.077383e+003,3.111049e+001
2.078347e+003,3.095257e+001
2.079311e+003,2.981186e+001
2.080275e+003,2.898327e+001
2.081240e+003,2.855733e+001
2.082204e+003,2.771060e+001
2.083168e+003,2.749625e+001
2.084132e+003,2.852506e+001
2.085096e+003,2.963491e+001
2.086061e+003,3.027882e+001
2.087025e+003,3.040392e+001
2.087989e+003,2.830251e+001
2.088953e+003,2.383568e+001
2.089918e+003,2.221955e+001
2.090882e+003,2.411348e+001
2.091846e+003,2.586336e+001
2.092810e+003,2.752943e+001
2.093775e+003,2.799695e+001
2.094739e+003,2.619065e+001
2.095703e+003,2.374171e+001
2.096667e+003,2.120189e+001
2.097632e+003,1.959436e+001
2.098596e+003,2.133150e+001
2.099560e+003,2.564351e+001
2.100524e+003,2.700020e+001
2.101489e+003,2.384328e+001
2.102453e+003,2.180182e+001
2.103417e+003,2.294553e+001
2.104381e+003,2.264326e+001
2.105345e+003,1.788705e+001
2.106310e+003,1.569237e+001
2.107274e+003,2.163708e+001
2.108238e+003,2.745227e+001
2.109202e+003,2.565655e+001
2.110167e+003,2.088627e+001
2.111131e+003,1.973208e+001
2.112095e+003,2.125580e+001
2.113059e+003,2.184658e+001
2.114023e+003,2.219365e+001
2.114988e+003,2.285413e+001
2.115952e+003,2.228437e+001
2.116916e+003,2.110944e+001
2.117880e+003,1.944732e+001
2.118845e+003,1.807658e+001
2.119809e+003,1.827547e+001
2.120773e+003,1.989013e+001
2.121737e+003,2.265584e+001
2.122702e+003,2.503195e+001
2.123666e+003,2.495951e+001
2.124630e+003,2.270811e+001
2.125594e+003,2.055571e+001
2.126559e+003,1.927084e+001
2.127523e+003,1.832722e+001
2.128487e+003,1.784160e+001
2.129451e+003,1.793147e+001
2.130416e+003,1.801194e+001
2.131380e+003,1.847002e+001
2.132344e+003,2.047723e+001
2.133308e+003,2.255132e+001
2.134272e+003,2.260375e+001
2.135237e+003,2.105563e+001
2.136201e+003,1.948286e+001
2.137165e+003,1.842747e+001
2.138129e+003,1.747235e+001
2.139094e+003,1.660689e+001
2.140058e+003,1.697397e+001
2.141022e+003,1.983316e+001
2.141986e+003,2.139798e+001
2.142950e+003,1.704726e+001
2.143915e+003,1.203681e+001
2.144879e+003,1.266074e+001
2.145843e+003,1.542969e+001
2.146807e+003,1.502682e+001
2.147772e+003,1.277586e+001
2.148736e+003,1.228648e+001
2.149700e+003,1.367320e+001
2.150664e+003,1.473936e+001
2.151629e+003,1.474075e+001
2.152593e+003,1.530975e+001
2.153557e+003,1.831680e+001
2.154521e+003,2.169409e+001
2.155486e+003,2.295765e+001
2.156450e+003,2.216451e+001
2.157414e+003,1.827865e+001
2.158378e+003,1.381539e+001
2.159343e+003,1.453852e+001
2.160307e+003,1.867614e+001
2.161271e+003,1.879446e+001
2.162235e+003,1.426245e+001
2.163199e+003,1.198165e+001
2.164164e+003,1.500778e+001
2.165128e+003,1.832584e+001
2.166092e+003,1.762595e+001
2.167056e+003,1.557095e+001
2.168021e+003,1.496834e+001
2.168985e+003,1.501385e+001
2.169949e+003,1.577969e+001
2.170913e+003,1.667675e+001
2.171877e+003,1.528577e+001
2.172842e+003,1.263051e+001
2.173806e+003,1.201680e+001
2.174770e+003,1.373384e+001
2.175734e+003,1.616291e+001
2.176699e+003,1.831401e+001
2.177663e+003,1.897811e+001
2.178627e+003,1.712676e+001
2.179591e+003,1.461647e+001
2.180556e+003,1.410531e+001
2.181520e+003,1.417545e+001
2.182484e+003,1.158982e+001
2.183448e+003,8.074366e+000
2.184413e+003,8.380871e+000
2.185377e+003,1.159014e+001
2.186341e+003,1.263265e+001
2.187305e+003,1.072386e+001
2.188270e+003,9.174074e+000
2.189234e+003,9.603100e+000
2.190198e+003,1.031215e+001
2.191162e+003,9.372570e+000
2.192126e+003,7.982727e+000
2.193091e+003,9.290632e+000
2.194055e+003,1.173543e+001
2.195019e+003,1.117699e+001
2.195983e+003,8.808052e+000
2.196948e+003,6.262290e+000
2.197912e+003,4.345428e+000
2.198876e+003,6.908721e+000
2.199840e+003,1.316787e+001
2.200804e+003,1.592085e+001
2.201769e+003,1.272917e+001
2.202733e+003,9.147112e+000
2.203697e+003,9.504742e+000
2.204661e+003,1.101001e+001
2.205626e+003,9.563669e+000
2.206590e+003,7.043837e+000
2.207554e+003,6.962473e+000
2.208518e+003,8.168517e+000
2.209483e+003,9.089948e+000
2.210447e+003,9.799883e+000
2.211411e+003,1.032683e+001
2.212375e+003,1.042103e+001
2.213340e+003,8.647909e+000
2.214304e+003,5.011442e+000
2.215268e+003,2.410185e+000
2.216232e+003,2.318992e+000
2.217197e+003,3.476326e+000
2.218161e+003,5.553148e+000
2.219125e+003,7.382158e+000
2.220089e+003,6.343487e+000
2.221053e+003,4.143493e+000
2.222018e+003,3.338389e+000
2.222982e+003,2.965590e+000
2.223946e+003,1.492076e+000
2.224910e+003,0.000000e+000
2.225875e+003,2.003705e+000
2.226839e+003,7.211444e+000
2.227803e+003,1.033379e+001
2.228767e+003,8.684030e+000
2.229731e+003,5.469688e+000
2.230696e+003,3.426178e+000
2.231660e+003,2.297943e+000
2.232624e+003,2.097680e+000
2.233588e+003,3.105844e+000
2.234553e+003,6.075550e+000
2.235517e+003,9.221212e+000
2.236481e+003,8.268172e+000
2.237445e+003,4.354433e+000
2.238410e+003,2.197522e+000
2.239374e+003,2.876604e+000
2.240338e+003,4.927015e+000
2.241302e+003,7.476871e+000
2.242267e+003,9.950730e+000
2.243231e+003,1.213515e+001
2.244195e+003,1.321935e+001
2.245159e+003,1.144246e+001
2.246124e+003,8.617336e+000
2.247088e+003,6.785130e+000
2.248052e+003,5.428745e+000
2.249016e+003,4.475308e+000
2.249980e+003,3.756240e+000
2.250945e+003,2.401483e+000
2.251909e+003,1.032313e+000
2.252873e+003,1.198658e+000
2.253837e+003,2.769843e+000
2.254802e+003,4.222613e+000
2.255766e+003,5.144919e+000
2.256730e+003,6.134052e+000
2.257694e+003,7.929574e+000
2.258658e+003,8.798697e+000
2.259623e+003,6.397916e+000
2.260587e+003,3.626705e+000
2.261551e+003,3.439654e+000
2.262515e+003,4.521822e+000
2.263480e+003,5.286418e+000
2.264444e+003,6.000102e+000
2.265408e+003,7.392490e+000
2.266372e+003,8.886557e+000
2.267337e+003,8.999756e+000
2.268301e+003,7.484896e+000
2.269265e+003,6.557797e+000
2.270229e+003,8.603957e+000
2.271194e+003,1.111434e+001
2.272158e+003,1.103036e+001
2.273122e+003,1.019699e+001
2.274086e+003,1.017439e+001
2.275051e+003,1.043158e+001
2.276015e+003,1.141739e+001
2.276979e+003,1.250989e+001
2.277943e+003,1.205929e+001
2.278907e+003,1.052128e+001
2.279872e+003,9.378529e+000
2.280836e+003,8.571949e+000
2.281800e+003,8.568342e+000
2.282764e+003,1.021304e+001
2.283729e+003,1.226508e+001
2.284693e+003,1.609495e+001
2.285657e+003,1.889381e+001
2.286621e+003,1.824734e+001
2.287585e+003,1.617215e+001
2.288550e+003,1.361588e+001
2.289514e+003,1.160880e+001
2.290478e+003,1.106570e+001
2.291442e+003,1.142848e+001
2.292407e+003,1.135045e+001
2.293371e+003,1.072871e+001
2.294335e+003,1.053861e+001
2.295299e+003,1.068957e+001
2.296264e+003,1.158734e+001
2.297228e+003,1.460022e+001
2.298192e+003,1.587371e+001
2.299156e+003,1.493858e+001
2.300121e+003,1.393154e+001
2.301085e+003,1.221746e+001
2.302049e+003,1.121114e+001
2.303013e+003,1.231064e+001
2.303978e+003,1.454503e+001
2.304942e+003,1.667272e+001
2.305906e+003,1.873656e+001
2.306870e+003,2.148521e+001
2.307834e+003,2.455550e+001
2.308799e+003,2.384320e+001
2.309763e+003,1.924221e+001
2.310727e+003,1.822582e+001
2.311691e+003,2.085651e+001
2.312656e+003,2.222096e+001
2.313620e+003,2.144014e+001
2.314584e+003,2.113917e+001
2.315548e+003,2.237664e+001
2.316512e+003,2.381504e+001
2.317477e+003,2.489759e+001
2.318441e+003,2.566995e+001
2.319405e+003,2.527080e+001
2.320369e+003,2.467914e+001
2.321334e+003,2.645893e+001
2.322298e+003,2.939789e+001
2.323262e+003,3.187859e+001
2.324226e+003,3.472855e+001
2.325191e+003,3.825575e+001
2.326155e+003,4.182676e+001
2.327119e+003,4.454548e+001
2.328083e+003,4.594924e+001
2.329048e+003,4.572360e+001
2.330012e+003,4.437527e+001
2.330976e+003,4.294357e+001
2.331940e+003,4.115150e+001
2.332905e+003,3.976152e+001
2.333869e+003,4.121969e+001
2.334833e+003,4.343322e+001
2.335797e+003,4.419691e+001
2.336761e+003,4.453334e+001
2.337726e+003,4.396169e+001
2.338690e+003,4.343984e+001
2.339654e+003,4.581971e+001
2.340618e+003,5.006786e+001
2.341583e+003,5.350070e+001
2.342547e+003,5.566193e+001
2.343511e+003,5.635317e+001
2.344475e+003,5.511399e+001
2.345439e+003,5.466338e+001
2.346404e+003,5.539842e+001
2.347368e+003,5.775053e+001
2.348332e+003,6.531125e+001
2.349296e+003,7.112867e+001
2.350261e+003,7.057072e+001
2.351225e+003,6.963874e+001
2.352189e+003,7.199911e+001
2.353153e+003,7.498179e+001
2.354118e+003,7.530894e+001
2.355082e+003,7.430772e+001
2.356046e+003,7.571054e+001
2.357010e+003,7.975483e+001
2.357975e+003,8.274748e+001
2.358939e+003,8.393874e+001
2.359903e+003,8.660130e+001
2.360867e+003,9.041692e+001
2.361832e+003,9.292274e+001
2.362796e+003,9.442878e+001
2.363760e+003,9.735425e+001
2.364724e+003,1.033438e+002
2.365688e+003,1.082159e+002
2.366653e+003,1.081825e+002
2.367617e+003,1.064882e+002
2.368581e+003,1.074388e+002
2.369545e+003,1.103110e+002
2.370510e+003,1.135377e+002
2.371474e+003,1.173084e+002
2.372438e+003,1.217857e+002
2.373402e+003,1.261515e+002
2.374366e+003,1.269812e+002
2.375331e+003,1.251151e+002
2.376295e+003,1.242254e+002
2.377259e+003,1.250283e+002
2.378223e+003,1.276158e+002
2.379188e+003,1.315836e+002
2.380152e+003,1.352986e+002
2.381116e+003,1.380502e+002
2.382080e+003,1.407625e+002
2.383045e+003,1.444118e+002
2.384009e+003,1.468729e+002
2.384973e+003,1.456824e+002
2.385937e+003,1.434895e+002
2.386902e+003,1.417915e+002
2.387866e+003,1.422062e+002
2.388830e+003,1.468367e+002
2.389794e+003,1.523862e+002
2.390759e+003,1.550032e+002
2.391723e+003,1.549979e+002
2.392687e+003,1.544054e+002
2.393651e+003,1.541604e+002
2.394615e+003,1.543550e+002
2.395580e+003,1.546232e+002
2.396544e+003,1.545248e+002
2.397508e+003,1.529293e+002
2.398472e+003,1.524545e+002
2.399437e+003,1.551026e+002
2.400401e+003,1.573612e+002
2.401365e+003,1.572698e+002
2.402329e+003,1.573934e+002
2.403293e+003,1.594581e+002
2.404258e+003,1.617316e+002
2.405222e+003,1.625607e+002
2.406186e+003,1.632321e+002
2.407150e+003,1.659647e+002
2.408115e+003,1.699809e+002
2.409079e+003,1.713223e+002
2.410043e+003,1.700816e+002
2.411007e+003,1.699026e+002
2.411972e+003,1.708862e+002
2.412936e+003,1.709548e+002
2.413900e+003,1.698753e+002
2.414864e+003,1.714656e+002
2.415829e+003,1.766026e+002
2.416793e+003,1.801004e+002
2.417757e+003,1.791157e+002
2.418721e+003,1.760421e+002
2.419686e+003,1.725781e+002
2.420650e+003,1.703762e+002
2.421614e+003,1.717575e+002
2.422578e+003,1.741281e+002
2.423542e+003,1.741588e+002
2.424507e+003,1.741178e+002
2.425471e+003,1.785348e+002
2.426435e+003,1.838230e+002
2.427399e+003,1.838008e+002
2.428364e+003,1.799587e+002
2.429328e+003,1.771434e+002
2.430292e+003,1.763897e+002
2.431256e+003,1.761107e+002
2.432220e+003,1.757998e+002
2.433185e+003,1.765728e+002
2.434149e+003,1.804737e+002
2.435113e+003,1.806329e+002
2.436077e+003,1.744713e+002
2.437042e+003,1.699022e+002
2.438006e+003,1.689722e+002
2.438970e+003,1.687781e+002
2.439934e+003,1.682301e+002
2.440899e+003,1.675490e+002
2.441863e+003,1.671953e+002
2.442827e+003,1.667394e+002
2.443791e+003,1.648506e+002
2.444756e+003,1.619917e+002
2.445720e+003,1.606982e+002
2.446684e+003,1.605902e+002
2.447648e+003,1.597594e+002
2.448613e+003,1.583370e+002
2.449577e+003,1.557592e+002
2.450541e+003,1.528633e+002
2.451505e+003,1.529865e+002
2.452469e+003,1.558239e+002
2.453434e+003,1.574325e+002
2.454398e+003,1.562136e+002
2.455362e+003,1.545614e+002
2.456326e+003,1.549657e+002
2.457291e+003,1.546375e+002
2.458255e+003,1.489153e+002
2.459219e+003,1.442905e+002
2.460183e+003,1.445020e+002
2.461147e+003,1.447426e+002
2.462112e+003,1.449238e+002
2.463076e+003,1.438719e+002
2.464040e+003,1.370753e+002
2.465004e+003,1.297256e+002
2.465969e+003,1.301830e+002
2.466933e+003,1.352702e+002
2.467897e+003,1.377526e+002
2.468861e+003,1.371178e+002
2.469826e+003,1.341201e+002
2.470790e+003,1.284298e+002
2.471754e+003,1.260826e+002
2.472718e+003,1.276926e+002
2.473683e+003,1.305134e+002
2.474647e+003,1.333691e+002
2.475611e+003,1.329419e+002
2.476575e+003,1.292990e+002
2.477540e+003,1.256289e+002
2.478504e+003,1.230841e+002
2.479468e+003,1.218425e+002
2.480432e+003,1.222372e+002
2.481396e+003,1.227383e+002
2.482361e+003,1.219947e+002
2.483325e+003,1.212490e+002
2.484289e+003,1.207025e+002
2.485253e+003,1.200228e+002
2.486218e+003,1.189801e+002
2.487182e+003,1.182246e+002
2.488146e+003,1.203793e+002
2.489110e+003,1.226729e+002
2.490074e+003,1.194215e+002
2.491039e+003,1.132738e+002
2.492003e+003,1.117289e+002
2.492967e+003,1.141741e+002
2.493931e+003,1.141628e+002
2.494896e+003,1.117758e+002
2.495860e+003,1.099717e+002
2.496824e+003,1.087925e+002
2.497788e+003,1.087931e+002
2.498753e+003,1.098213e+002
2.499717e+003,1.107126e+002
2.500681e+003,1.114560e+002
2.501645e+003,1.112930e+002
2.502610e+003,1.096163e+002
2.503574e+003,1.080761e+002
2.504538e+003,1.083804e+002
2.505502e+003,1.102218e+002
2.506467e+003,1.131307e+002
2.507431e+003,1.151084e+002
2.508395e+003,1.133800e+002
2.509359e+003,1.105154e+002
2.510323e+003,1.086651e+002
2.511288e+003,1.082088e+002
2.512252e+003,1.112155e+002
2.513216e+003,1.146774e+002
2.514180e+003,1.124634e+002
2.515145e+003,1.071646e+002
2.516109e+003,1.077004e+002
2.517073e+003,1.143244e+002
2.518037e+003,1.163764e+002
2.519001e+003,1.109128e+002
2.519966e+003,1.081203e+002
2.520930e+003,1.087571e+002
2.521894e+003,1.100626e+002
2.522858e+003,1.120464e+002
2.523823e+003,1.139377e+002
2.524787e+003,1.155547e+002
2.525751e+003,1.159182e+002
2.526715e+003,1.146223e+002
2.527680e+003,1.144077e+002
2.528644e+003,1.175903e+002
2.529608e+003,1.199890e+002
2.530572e+003,1.153172e+002
2.531537e+003,1.083336e+002
2.532501e+003,1.064934e+002
2.533465e+003,1.069609e+002
2.534429e+003,1.063975e+002
2.535394e+003,1.060876e+002
2.536358e+003,1.078418e+002
2.537322e+003,1.097367e+002
2.538286e+003,1.090563e+002
2.539250e+003,1.068846e+002
2.540215e+003,1.061027e+002
2.541179e+003,1.066334e+002
2.542143e+003,1.059632e+002
2.543107e+003,1.043652e+002
2.544072e+003,1.049002e+002
2.545036e+003,1.073735e+002
2.546000e+003,1.097918e+002
2.546964e+003,1.122589e+002
2.547928e+003,1.113039e+002
2.548893e+003,1.061227e+002
2.549857e+003,1.033433e+002
2.550821e+003,1.055131e+002
2.551785e+003,1.079788e+002
2.552750e+003,1.078208e+002
2.553714e+003,1.060983e+002
2.554678e+003,1.034817e+002
2.555642e+003,1.014623e+002
2.556607e+003,1.010389e+002
2.557571e+003,1.010233e+002
2.558535e+003,1.014836e+002
2.559499e+003,1.012892e+002
2.560464e+003,1.000532e+002
2.561428e+003,9.847167e+001
2.562392e+003,9.589993e+001
2.563356e+003,9.281635e+001
2.564321e+003,9.042039e+001
2.565285e+003,8.915405e+001
2.566249e+003,8.982972e+001
2.567213e+003,9.192885e+001
2.568177e+003,9.249965e+001
2.569142e+003,9.162000e+001
2.570106e+003,9.086718e+001
2.571070e+003,9.070676e+001
2.572034e+003,9.077216e+001
2.572999e+003,9.125613e+001
2.573963e+003,9.350095e+001
2.574927e+003,9.679205e+001
2.575891e+003,9.786303e+001
2.576855e+003,9.536663e+001
2.577820e+003,9.200095e+001
2.578784e+003,9.019021e+001
2.579748e+003,8.882343e+001
2.580712e+003,8.660140e+001
2.581677e+003,8.535155e+001
2.582641e+003,8.587012e+001
2.583605e+003,8.571632e+001
2.584569e+003,8.353004e+001
2.585534e+003,8.168896e+001
2.586498e+003,8.209312e+001
2.587462e+003,8.240243e+001
2.588426e+003,7.966900e+001
2.589391e+003,7.609206e+001
2.590355e+003,7.646116e+001
2.591319e+003,7.884282e+001
2.592283e+003,7.599706e+001
2.593248e+003,7.037688e+001
2.594212e+003,6.957371e+001
2.595176e+003,7.159828e+001
2.596140e+003,7.145147e+001
2.597104e+003,7.011178e+001
2.598069e+003,7.162852e+001
2.599033e+003,7.465160e+001
2.599997e+003,7.352136e+001
2.600961e+003,6.842346e+001
2.601926e+003,6.653393e+001
2.602890e+003,6.970994e+001
2.603854e+003,7.235432e+001
2.604818e+003,7.426031e+001
2.605782e+003,7.386086e+001
2.606747e+003,7.101730e+001
2.607711e+003,6.799772e+001
2.608675e+003,6.503307e+001
2.609639e+003,6.353678e+001
2.610604e+003,6.408078e+001
2.611568e+003,6.467762e+001
2.612532e+003,6.402580e+001
2.613496e+003,6.313472e+001
2.614461e+003,6.257724e+001
2.615425e+003,6.239074e+001
2.616389e+003,6.359143e+001
2.617353e+003,6.448853e+001
2.618318e+003,6.362743e+001
2.619282e+003,6.249460e+001
2.620246e+003,6.325605e+001
2.621210e+003,6.449248e+001
2.622175e+003,6.242652e+001
2.623139e+003,5.977633e+001
2.624103e+003,6.108792e+001
2.625067e+003,6.339487e+001
2.626031e+003,6.122696e+001
2.626996e+003,5.684835e+001
2.627960e+003,5.506959e+001
2.628924e+003,5.496843e+001
2.629888e+003,5.681086e+001
2.630853e+003,5.965231e+001
2.631817e+003,6.192137e+001
2.632781e+003,6.417565e+001
2.633745e+003,6.409032e+001
2.634709e+003,6.130870e+001
2.635674e+003,5.987070e+001
2.636638e+003,6.053498e+001
2.637602e+003,5.928362e+001
2.638566e+003,5.575880e+001
2.639531e+003,5.382198e+001
2.640495e+003,5.240238e+001
2.641459e+003,5.243198e+001
2.642423e+003,5.515189e+001
2.643388e+003,5.715878e+001
2.644352e+003,5.744337e+001
2.645316e+003,5.726176e+001
2.646280e+003,5.700654e+001
2.647245e+003,5.645200e+001
2.648209e+003,5.624474e+001
2.649173e+003,5.594653e+001
2.650137e+003,5.376965e+001
2.651102e+003,5.215379e+001
2.652066e+003,5.341355e+001
2.653030e+003,5.432844e+001
2.653994e+003,5.466716e+001
2.654958e+003,5.472511e+001
2.655923e+003,5.410970e+001
2.656887e+003,5.369596e+001
2.657851e+003,5.338450e+001
2.658815e+003,5.242985e+001
2.659780e+003,5.060885e+001
2.660744e+003,4.876893e+001
2.661708e+003,4.824687e+001
2.662672e+003,4.884126e+001
2.663636e+003,4.999167e+001
2.664601e+003,5.090807e+001
2.665565e+003,4.812341e+001
2.666529e+003,4.408447e+001
2.667493e+003,4.481127e+001
2.668458e+003,4.798460e+001
2.669422e+003,4.749104e+001
2.670386e+003,4.392693e+001
2.671350e+003,4.241554e+001
2.672315e+003,4.408224e+001
2.673279e+003,4.531022e+001
2.674243e+003,4.482066e+001
2.675207e+003,4.399345e+001
2.676172e+003,4.280588e+001
2.677136e+003,4.297377e+001
2.678100e+003,4.498931e+001
2.679064e+003,4.546187e+001
2.680029e+003,4.340598e+001
2.680993e+003,4.072680e+001
2.681957e+003,3.867163e+001
2.682921e+003,3.763794e+001
2.683885e+003,3.716150e+001
2.684850e+003,3.672557e+001
2.685814e+003,3.731771e+001
2.686778e+003,3.832452e+001
2.687742e+003,3.790163e+001
2.688707e+003,3.880357e+001
2.689671e+003,4.230473e+001
2.690635e+003,4.365490e+001
2.691599e+003,4.221916e+001
2.692563e+003,4.013792e+001
2.693528e+003,3.825759e+001
2.694492e+003,3.697308e+001
2.695456e+003,3.643551e+001
2.696420e+003,3.621873e+001
2.697385e+003,3.598962e+001
2.698349e+003,3.563441e+001
2.699313e+003,3.519215e+001
2.700277e+003,3.497668e+001
2.701242e+003,3.451989e+001
2.702206e+003,3.354208e+001
2.703170e+003,3.234357e+001
2.704134e+003,3.110513e+001
2.705099e+003,3.036388e+001
2.706063e+003,3.002642e+001
2.707027e+003,2.937609e+001
2.707991e+003,2.887432e+001
2.708956e+003,2.942406e+001
2.709920e+003,3.016885e+001
2.710884e+003,3.065851e+001
2.711848e+003,3.088926e+001
2.712813e+003,2.914086e+001
2.713777e+003,2.676161e+001
2.714741e+003,2.422499e+001
2.715705e+003,2.142897e+001
2.716669e+003,2.123207e+001
2.717634e+003,2.297290e+001
2.718598e+003,2.295090e+001
2.719562e+003,2.208955e+001
2.720526e+003,2.339848e+001
2.721490e+003,2.492565e+001
2.722455e+003,2.495771e+001
2.723419e+003,2.466651e+001
2.724383e+003,2.524482e+001
2.725347e+003,2.654846e+001
2.726312e+003,2.693290e+001
2.727276e+003,2.549580e+001
2.728240e+003,2.216087e+001
2.729204e+003,1.901429e+001
2.730169e+003,1.914809e+001
2.731133e+003,2.170755e+001
2.732097e+003,2.331143e+001
2.733061e+003,2.372707e+001
2.734026e+003,2.161927e+001
2.734990e+003,1.716613e+001
2.735954e+003,1.657906e+001
2.736918e+003,1.927263e+001
2.737883e+003,2.254005e+001
2.738847e+003,2.538790e+001
2.739811e+003,2.527260e+001
2.740775e+003,2.213363e+001
2.741740e+003,1.965089e+001
2.742704e+003,2.003411e+001
2.743668e+003,2.042087e+001
2.744632e+003,1.776269e+001
2.745596e+003,1.618142e+001
2.746561e+003,1.800724e+001
2.747525e+003,1.794243e+001
2.748489e+003,1.555302e+001
2.749453e+003,1.345768e+001
2.750417e+003,1.258596e+001
2.751382e+003,1.213538e+001
2.752346e+003,1.103867e+001
2.753310e+003,1.162494e+001
2.754274e+003,1.554970e+001
2.755239e+003,1.916672e+001
2.756203e+003,1.927250e+001
2.757167e+003,1.792978e+001
2.758131e+003,1.600430e+001
2.759096e+003,1.424641e+001
2.760060e+003,1.359068e+001
2.761024e+003,1.329396e+001
2.761988e+003,1.238505e+001
2.762953e+003,1.229351e+001
2.763917e+003,1.391583e+001
2.764881e+003,1.641571e+001
2.765845e+003,1.918194e+001
2.766810e+003,2.086955e+001
2.767774e+003,1.995388e+001
2.768738e+003,1.747509e+001
2.769702e+003,1.254867e+001
2.770667e+003,8.849039e+000
2.771631e+003,1.142553e+001
2.772595e+003,1.387603e+001
2.773559e+003,1.025524e+001
2.774523e+003,6.617962e+000
2.775488e+003,1.043832e+001
2.776452e+003,1.722937e+001
2.777416e+003,1.933438e+001
2.778380e+003,1.660699e+001
2.779344e+003,1.580097e+001
2.780309e+003,1.782540e+001
2.781273e+003,1.724251e+001
2.782237e+003,1.698225e+001
2.783201e+003,2.041840e+001
2.784166e+003,2.250554e+001
2.785130e+003,2.025441e+001
2.786094e+003,1.682127e+001
2.787058e+003,1.572699e+001
2.788023e+003,1.686793e+001
2.788987e+003,1.796431e+001
2.789951e+003,1.831825e+001
2.790915e+003,1.826215e+001
2.791880e+003,1.792247e+001
2.792844e+003,1.626870e+001
2.793808e+003,1.425677e+001
2.794772e+003,1.298323e+001
2.795737e+003,1.187521e+001
2.796701e+003,1.392222e+001
2.797665e+003,1.742063e+001
2.798629e+003,1.699350e+001
2.799594e+003,1.417953e+001
2.800558e+003,1.417829e+001
2.801522e+003,1.592716e+001
2.802486e+003,1.401550e+001
2.803450e+003,7.689412e+000
2.804415e+003,5.548372e+000
2.805379e+003,7.292580e+000
2.806343e+003,9.935583e+000
2.807307e+003,1.457223e+001
2.808271e+003,1.840553e+001
2.809236e+003,1.897856e+001
2.810200e+003,1.763631e+001
2.811164e+003,1.610142e+001
2.812128e+003,1.378893e+001
2.813093e+003,1.111206e+001
2.814057e+003,1.292359e+001
2.815021e+003,1.751794e+001
2.815985e+003,1.781834e+001
2.816950e+003,1.634115e+001
2.817914e+003,1.625030e+001
2.818878e+003,1.649404e+001
2.819842e+003,1.614952e+001
2.820807e+003,1.558123e+001
2.821771e+003,1.348694e+001
2.822735e+003,9.823181e+000
2.823699e+003,9.207141e+000
2.824664e+003,1.357804e+001
2.825628e+003,1.598762e+001
2.826592e+003,1.609629e+001
2.827556e+003,1.650391e+001
2.828521e+003,1.606154e+001
2.829485e+003,1.294998e+001
2.830449e+003,8.756376e+000
2.831413e+003,8.744774e+000
2.832377e+003,1.186500e+001
2.833342e+003,1.343627e+001
2.834306e+003,1.304562e+001
2.835270e+003,1.251580e+001
2.836234e+003,1.202809e+001
2.837198e+003,1.239449e+001
2.838163e+003,1.398575e+001
2.839127e+003,1.653524e+001
2.840091e+003,2.030983e+001
2.841055e+003,1.976740e+001
2.842020e+003,1.484287e+001
2.842984e+003,1.175684e+001
2.843948e+003,1.171744e+001
2.844912e+003,1.387102e+001
2.845877e+003,1.708673e+001
2.846841e+003,1.689581e+001
2.847805e+003,1.169036e+001
2.848769e+003,9.371377e+000
2.849734e+003,1.194826e+001
2.850698e+003,1.303637e+001
2.851662e+003,1.255074e+001
2.852626e+003,1.077055e+001
2.853591e+003,8.609977e+000
2.854555e+003,1.038067e+001
2.855519e+003,1.513208e+001
2.856483e+003,1.636443e+001
2.857448e+003,1.309286e+001
2.858412e+003,1.109522e+001
2.859376e+003,1.274137e+001
2.860340e+003,1.417767e+001
2.861304e+003,1.477339e+001
2.862269e+003,1.405905e+001
2.863233e+003,1.120163e+001
2.864197e+003,1.097433e+001
2.865161e+003,1.416963e+001
2.866125e+003,1.521587e+001
2.867090e+003,1.328567e+001
2.868054e+003,1.311303e+001
2.869018e+003,1.532051e+001
2.869982e+003,1.505227e+001
2.870947e+003,1.164828e+001
2.871911e+003,1.038711e+001
2.872875e+003,1.053182e+001
2.873839e+003,1.100574e+001
2.874804e+003,1.210123e+001
2.875768e+003,1.178852e+001
2.876732e+003,1.036862e+001
2.877696e+003,9.906359e+000
2.878661e+003,1.071801e+001
2.879625e+003,1.275818e+001
2.880589e+003,1.554943e+001
2.881553e+003,1.660716e+001
2.882518e+003,1.521297e+001
2.883482e+003,1.458184e+001
2.884446e+003,1.484805e+001
2.885410e+003,1.478917e+001
2.886375e+003,1.436761e+001
2.887339e+003,1.484229e+001
2.888303e+003,1.624738e+001
2.889267e+003,1.832775e+001
2.890231e+003,2.042606e+001
2.891196e+003,2.050410e+001
2.892160e+003,1.857859e+001
2.893124e+003,1.818958e+001
2.894088e+003,2.001467e+001
2.895052e+003,2.139957e+001
2.896017e+003,2.228849e+001
2.896981e+003,2.352786e+001
2.897945e+003,2.507692e+001
2.898909e+003,2.653210e+001
2.899874e+003,2.786472e+001
2.900838e+003,2.916339e+001
2.901802e+003,3.043727e+001
2.902766e+003,3.178769e+001
2.903731e+003,3.311967e+001
2.904695e+003,3.354880e+001
2.905659e+003,3.305581e+001
2.906623e+003,3.305171e+001
2.907588e+003,3.357213e+001
2.908552e+003,3.556569e+001
2.909516e+003,3.849870e+001
2.910480e+003,4.040667e+001
2.911445e+003,4.163007e+001
2.912409e+003,4.414851e+001
2.913373e+003,4.705927e+001
2.914337e+003,4.643255e+001
2.915302e+003,4.309745e+001
2.916266e+003,4.315955e+001
2.917230e+003,4.631723e+001
2.918194e+003,4.953167e+001
2.919158e+003,5.228809e+001
2.920123e+003,5.106746e+001
2.921087e+003,4.833742e+001
2.922051e+003,5.002411e+001
2.923015e+003,5.405516e+001
2.923979e+003,5.596255e+001
2.924944e+003,5.609039e+001
2.925908e+003,5.664156e+001
2.926872e+003,5.730112e+001
2.927836e+003,5.668590e+001
2.928801e+003,5.540844e+001
2.929765e+003,5.632323e+001
2.930729e+003,5.849557e+001
2.931693e+003,5.977840e+001
2.932658e+003,6.112041e+001
2.933622e+003,6.466628e+001
2.934586e+003,6.875535e+001
2.935550e+003,7.088445e+001
2.936515e+003,7.167406e+001
2.937479e+003,7.168438e+001
2.938443e+003,7.175755e+001
2.939407e+003,7.426639e+001
2.940372e+003,7.757136e+001
2.941336e+003,7.824094e+001
2.942300e+003,7.752100e+001
2.943264e+003,7.568568e+001
2.944229e+003,7.464615e+001
2.945193e+003,7.713480e+001
2.946157e+003,8.024880e+001
2.947121e+003,8.165553e+001
2.948085e+003,8.201318e+001
2.949050e+003,8.196774e+001
2.950014e+003,8.196002e+001
2.950978e+003,8.265358e+001
2.951942e+003,8.376584e+001
2.952906e+003,8.490971e+001
2.953871e+003,8.642088e+001
2.954835e+003,8.951236e+001
2.955799e+003,9.157942e+001
2.956763e+003,9.120214e+001
2.957728e+003,8.966982e+001
2.958692e+003,8.765935e+001
2.959656e+003,8.697614e+001
2.960620e+003,8.951862e+001
2.961585e+003,9.172639e+001
2.962549e+003,8.809126e+001
2.963513e+003,8.628534e+001
2.964477e+003,9.255375e+001
2.965442e+003,9.796022e+001
2.966406e+003,9.967173e+001
2.967370e+003,1.014384e+002
2.968334e+003,1.045564e+002
2.969299e+003,1.055974e+002
2.970263e+003,1.030681e+002
2.971227e+003,1.013834e+002
2.972191e+003,1.035338e+002
2.973156e+003,1.048092e+002
2.974120e+003,1.021112e+002
2.975084e+003,9.972104e+001
2.976048e+003,9.772789e+001
2.977012e+003,9.761864e+001
2.977977e+003,9.959912e+001
2.978941e+003,1.033511e+002
2.979905e+003,1.081556e+002
2.980869e+003,1.107981e+002
2.981833e+003,1.103445e+002
2.982798e+003,1.087135e+002
2.983762e+003,1.059281e+002
2.984726e+003,1.056807e+002
2.985690e+003,1.087520e+002
2.986655e+003,1.109089e+002
2.987619e+003,1.121327e+002
2.988583e+003,1.145678e+002
2.989547e+003,1.176793e+002
2.990512e+003,1.186964e+002
2.991476e+003,1.176102e+002
2.992440e+003,1.157436e+002
2.993404e+003,1.136568e+002
2.994369e+003,1.130497e+002
2.995333e+003,1.138993e+002
2.996297e+003,1.156820e+002
2.997261e+003,1.180523e+002
2.998226e+003,1.188195e+002
2.999190e+003,1.184282e+002
3.000154e+003,1.173211e+002
3.001118e+003,1.165207e+002
3.002083e+003,1.180131e+002
3.003047e+003,1.207343e+002
3.004011e+003,1.221531e+002
3.004975e+003,1.229681e+002
3.005939e+003,1.251791e+002
3.006904e+003,1.276618e+002
3.007868e+003,1.267290e+002
3.008832e+003,1.247061e+002
3.009796e+003,1.243445e+002
3.010760e+003,1.254314e+002
3.011725e+003,1.295333e+002
3.012689e+003,1.322867e+002
3.013653e+003,1.295925e+002
3.014617e+003,1.264388e+002
3.015582e+003,1.278764e+002
3.016546e+003,1.313214e+002
3.017510e+003,1.340965e+002
3.018474e+003,1.359852e+002
3.019439e+003,1.359084e+002
3.020403e+003,1.361354e+002
3.021367e+003,1.390424e+002
3.022331e+003,1.403270e+002
3.023296e+003,1.382644e+002
3.024260e+003,1.368795e+002
3.025224e+003,1.380980e+002
3.026188e+003,1.405943e+002
3.027153e+003,1.436487e+002
3.028117e+003,1.461527e+002
3.029081e+003,1.470045e+002
3.030045e+003,1.480999e+002
3.031010e+003,1.497237e+002
3.031974e+003,1.518061e+002
3.032938e+003,1.543438e+002
3.033902e+003,1.565723e+002
3.034866e+003,1.580661e+002
3.035831e+003,1.572456e+002
3.036795e+003,1.542525e+002
3.037759e+003,1.524084e+002
3.038723e+003,1.526677e+002
3.039688e+003,1.538631e+002
3.040652e+003,1.559398e+002
3.041616e+003,1.591198e+002
3.042580e+003,1.629135e+002
3.043544e+003,1.642503e+002
3.044509e+003,1.637367e+002
3.045473e+003,1.630926e+002
3.046437e+003,1.627844e+002
3.047401e+003,1.631242e+002
3.048366e+003,1.640565e+002
3.049330e+003,1.653960e+002
3.050294e+003,1.669914e+002
3.051258e+003,1.681717e+002
3.052223e+003,1.692395e+002
3.053187e+003,1.710576e+002
3.054151e+003,1.730644e+002
3.055115e+003,1.746564e+002
3.056080e+003,1.759077e+002
3.057044e+003,1.767240e+002
3.058008e+003,1.778281e+002
3.058972e+003,1.799799e+002
3.059937e+003,1.817987e+002
3.060901e+003,1.813944e+002
3.061865e+003,1.805651e+002
3.062829e+003,1.812045e+002
3.063793e+003,1.822563e+002
3.064758e+003,1.834517e+002
3.065722e+003,1.842395e+002
3.066686e+003,1.841853e+002
3.067650e+003,1.856232e+002
3.068615e+003,1.892919e+002
3.069579e+003,1.912548e+002
3.070543e+003,1.895803e+002
3.071507e+003,1.881248e+002
3.072471e+003,1.890974e+002
3.073436e+003,1.893758e+002
3.074400e+003,1.877596e+002
3.075364e+003,1.889400e+002
3.076328e+003,1.929863e+002
3.077293e+003,1.946468e+002
3.078257e+003,1.939575e+002
3.079221e+003,1.943552e+002
3.080185e+003,1.962947e+002
3.081150e+003,1.987603e+002
3.082114e+003,2.011943e+002
3.083078e+003,2.005509e+002
3.084042e+003,1.972142e+002
3.085007e+003,1.971390e+002
3.085971e+003,1.989271e+002
3.086935e+003,1.985363e+002
3.087899e+003,1.969905e+002
3.088864e+003,1.953584e+002
3.089828e+003,1.948784e+002
3.090792e+003,1.975464e+002
3.091756e+003,2.008625e+002
3.092720e+003,2.015446e+002
3.093685e+003,2.009861e+002
3.094649e+003,2.011408e+002
3.095613e+003,2.019862e+002
3.096577e+003,2.038967e+002
3.097542e+003,2.059404e+002
3.098506e+003,2.076092e+002
3.099470e+003,2.091169e+002
3.100434e+003,2.105870e+002
3.101398e+003,2.115379e+002
3.102363e+003,2.117499e+002
3.103327e+003,2.121123e+002
3.104291e+003,2.133209e+002
3.105255e+003,2.137022e+002
3.106220e+003,2.106209e+002
3.107184e+003,2.110518e+002
3.108148e+003,2.162324e+002
3.109112e+003,2.172949e+002
3.110077e+003,2.140267e+002
3.111041e+003,2.127121e+002
3.112005e+003,2.138378e+002
3.112969e+003,2.137336e+002
3.113934e+003,2.120361e+002
3.114898e+003,2.120749e+002
3.115862e+003,2.137659e+002
3.116826e+003,2.146194e+002
3.117791e+003,2.148765e+002
3.118755e+003,2.152922e+002
3.119719e+003,2.163157e+002
3.120683e+003,2.200184e+002
3.121647e+003,2.236376e+002
3.122612e+003,2.215225e+002
3.123576e+003,2.190586e+002
3.124540e+003,2.218218e+002
3.125504e+003,2.270252e+002
3.126469e+003,2.312698e+002
3.127433e+003,2.340489e+002
3.128397e+003,2.340603e+002
3.129361e+003,2.333949e+002
3.130325e+003,2.324548e+002
3.131290e+003,2.329245e+002
3.132254e+003,2.355785e+002
3.133218e+003,2.370892e+002
3.134182e+003,2.363259e+002
3.135147e+003,2.362523e+002
3.136111e+003,2.383046e+002
3.137075e+003,2.411581e+002
3.138039e+003,2.461113e+002
3.139004e+003,2.452472e+002
3.139968e+003,2.375287e+002
3.140932e+003,2.340682e+002
3.141896e+003,2.351342e+002
3.142861e+003,2.391012e+002
3.143825e+003,2.441673e+002
3.144789e+003,2.467850e+002
3.145753e+003,2.472145e+002
3.146718e+003,2.483203e+002
3.147682e+003,2.496820e+002
3.148646e+003,2.491379e+002
3.149610e+003,2.477216e+002
3.150574e+003,2.482027e+002
3.151539e+003,2.497129e+002
3.152503e+003,2.520598e+002
3.153467e+003,2.537192e+002
3.154431e+003,2.532174e+002
3.155396e+003,2.525049e+002
3.156360e+003,2.528257e+002
3.157324e+003,2.539805e+002
3.158288e+003,2.558946e+002
3.159252e+003,2.579759e+002
3.160217e+003,2.604548e+002
3.161181e+003,2.616985e+002
3.162145e+003,2.610730e+002
3.163109e+003,2.600049e+002
3.164074e+003,2.588336e+002
3.165038e+003,2.607128e+002
3.166002e+003,2.653618e+002
3.166966e+003,2.680677e+002
3.167931e+003,2.679377e+002
3.168895e+003,2.688511e+002
3.169859e+003,2.710654e+002
3.170823e+003,2.704904e+002
3.171788e+003,2.681073e+002
3.172752e+003,2.708560e+002
3.173716e+003,2.753200e+002
3.174680e+003,2.739838e+002
3.175645e+003,2.705887e+002
3.176609e+003,2.713331e+002
3.177573e+003,2.730967e+002
3.178537e+003,2.725753e+002
3.179501e+003,2.716494e+002
3.180466e+003,2.731276e+002
3.181430e+003,2.747025e+002
3.182394e+003,2.727096e+002
3.183358e+003,2.724359e+002
3.184323e+003,2.777489e+002
3.185287e+003,2.808517e+002
3.186251e+003,2.799487e+002
3.187215e+003,2.783660e+002
3.188179e+003,2.773105e+002
3.189144e+003,2.761231e+002
3.190108e+003,2.745442e+002
3.191072e+003,2.741104e+002
3.192036e+003,2.750326e+002
3.193001e+003,2.773341e+002
3.193965e+003,2.805201e+002
3.194929e+003,2.800641e+002
3.195893e+003,2.778531e+002
3.196858e+003,2.791371e+002
3.197822e+003,2.819637e+002
3.198786e+003,2.816375e+002
3.199750e+003,2.796801e+002
3.200715e+003,2.780740e+002
3.201679e+003,2.775994e+002
3.202643e+003,2.811787e+002
3.203607e+003,2.845800e+002
3.204572e+003,2.812104e+002
3.205536e+003,2.800701e+002
3.206500e+003,2.867983e+002
3.207464e+003,2.917562e+002
3.208428e+003,2.918869e+002
3.209393e+003,2.917558e+002
3.210357e+003,2.932283e+002
3.211321e+003,2.932382e+002
3.212285e+003,2.900295e+002
3.213250e+003,2.883908e+002
3.214214e+003,2.888893e+002
3.215178e+003,2.891734e+002
3.216142e+003,2.893732e+002
3.217106e+003,2.905844e+002
3.218071e+003,2.924884e+002
3.219035e+003,2.952243e+002
3.219999e+003,2.968893e+002
3.220963e+003,2.933919e+002
3.221928e+003,2.888918e+002
3.222892e+003,2.915925e+002
3.223856e+003,2.971448e+002
3.224820e+003,2.989036e+002
3.225785e+003,2.990160e+002
3.226749e+003,2.982246e+002
3.227713e+003,2.979792e+002
3.228677e+003,2.988917e+002
3.229642e+003,2.991918e+002
3.230606e+003,2.983980e+002
3.231570e+003,3.000430e+002
3.232534e+003,3.057831e+002
3.233499e+003,3.089932e+002
3.234463e+003,3.060044e+002
3.235427e+003,3.066016e+002
3.236391e+003,3.105486e+002
3.237355e+003,3.114654e+002
3.238320e+003,3.099253e+002
3.239284e+003,3.072132e+002
3.240248e+003,3.054221e+002
3.241212e+003,3.099027e+002
3.242177e+003,3.159537e+002
3.243141e+003,3.166401e+002
3.244105e+003,3.140737e+002
3.245069e+003,3.103488e+002
3.246033e+003,3.080860e+002
3.246998e+003,3.119965e+002
3.247962e+003,3.150562e+002
3.248926e+003,3.134936e+002
3.249890e+003,3.129694e+002
3.250855e+003,3.151229e+002
3.251819e+003,3.168138e+002
3.252783e+003,3.169696e+002
3.253747e+003,3.186884e+002
3.254712e+003,3.236374e+002
3.255676e+003,3.246591e+002
3.256640e+003,3.212342e+002
3.257604e+003,3.225641e+002
3.258569e+003,3.267670e+002
3.259533e+003,3.267705e+002
3.260497e+003,3.249586e+002
3.261461e+003,3.269247e+002
3.262426e+003,3.303720e+002
3.263390e+003,3.318687e+002
3.264354e+003,3.326212e+002
3.265318e+003,3.342005e+002
3.266282e+003,3.362829e+002
3.267247e+003,3.396239e+002
3.268211e+003,3.414034e+002
3.269175e+003,3.393812e+002
3.270139e+003,3.389219e+002
3.271104e+003,3.410458e+002
3.272068e+003,3.428151e+002
3.273032e+003,3.433539e+002
3.273996e+003,3.427597e+002
3.274960e+003,3.413260e+002
3.275925e+003,3.440468e+002
3.276889e+003,3.508025e+002
3.277853e+003,3.514759e+002
3.278817e+003,3.484003e+002
3.279782e+003,3.470104e+002
3.280746e+003,3.473292e+002
3.281710e+003,3.503077e+002
3.282674e+003,3.528331e+002
3.283639e+003,3.523142e+002
3.284603e+003,3.503565e+002
3.285567e+003,3.480963e+002
3.286531e+003,3.477374e+002
3.287496e+003,3.542118e+002
3.288460e+003,3.571852e+002
3.289424e+003,3.524346e+002
3.290388e+003,3.510814e+002
3.291353e+003,3.540372e+002
3.292317e+003,3.564210e+002
3.293281e+003,3.575178e+002
3.294245e+003,3.589639e+002
3.295209e+003,3.607740e+002
3.296174e+003,3.613786e+002
3.297138e+003,3.612610e+002
3.298102e+003,3.633077e+002
3.299066e+003,3.654275e+002
3.300031e+003,3.618572e+002
3.300995e+003,3.583961e+002
3.301959e+003,3.619706e+002
3.302923e+003,3.655239e+002
3.303887e+003,3.660195e+002
3.304852e+003,3.654693e+002
3.305816e+003,3.650617e+002
3.306780e+003,3.660881e+002
3.307744e+003,3.706139e+002
3.308709e+003,3.710071e+002
3.309673e+003,3.660312e+002
3.310637e+003,3.648503e+002
3.311601e+003,3.671729e+002
3.312566e+003,3.707001e+002
3.313530e+003,3.740884e+002
3.314494e+003,3.757636e+002
3.315458e+003,3.752129e+002
3.316423e+003,3.713371e+002
3.317387e+003,3.674174e+002
3.318351e+003,3.696012e+002
3.319315e+003,3.742061e+002
3.320280e+003,3.791563e+002
3.321244e+003,3.821544e+002
3.322208e+003,3.819973e+002
3.323172e+003,3.826662e+002
3.324136e+003,3.848633e+002
3.325101e+003,3.839413e+002
3.326065e+003,3.793406e+002
3.327029e+003,3.783763e+002
3.327993e+003,3.827818e+002
3.328958e+003,3.872671e+002
3.329922e+003,3.913676e+002
3.330886e+003,3.901233e+002
3.331850e+003,3.872555e+002
3.332814e+003,3.905387e+002
3.333779e+003,3.942986e+002
3.334743e+003,3.919518e+002
3.335707e+003,3.895848e+002
3.336671e+003,3.916012e+002
3.337636e+003,3.952138e+002
3.338600e+003,3.988770e+002
3.339564e+003,4.005926e+002
3.340528e+003,3.973594e+002
3.341493e+003,3.978484e+002
3.342457e+003,4.021581e+002
3.343421e+003,4.038117e+002
3.344385e+003,4.028908e+002
3.345350e+003,4.019281e+002
3.346314e+003,4.017872e+002
3.347278e+003,4.033387e+002
3.348242e+003,4.056931e+002
3.349207e+003,4.069775e+002
3.350171e+003,4.077586e+002
3.351135e+003,4.090200e+002
3.352099e+003,4.100581e+002
3.353063e+003,4.098167e+002
3.354028e+003,4.107434e+002
3.354992e+003,4.134604e+002
3.355956e+003,4.147288e+002
3.356920e+003,4.137830e+002
3.357885e+003,4.145410e+002
3.358849e+003,4.183375e+002
3.359813e+003,4.181622e+002
3.360777e+003,4.141628e+002
3.361741e+003,4.134486e+002
3.362706e+003,4.153463e+002
3.363670e+003,4.202279e+002
3.364634e+003,4.248058e+002
3.365598e+003,4.254507e+002
3.366563e+003,4.237071e+002
3.367527e+003,4.203365e+002
3.368491e+003,4.192043e+002
3.369455e+003,4.243097e+002
3.370420e+003,4.287786e+002
3.371384e+003,4.278511e+002
3.372348e+003,4.292222e+002
3.373312e+003,4.330093e+002
3.374277e+003,4.346703e+002
3.375241e+003,4.341643e+002
3.376205e+003,4.329561e+002
3.377169e+003,4.311565e+002
3.378134e+003,4.276532e+002
3.379098e+003,4.251264e+002
3.380062e+003,4.296416e+002
3.381026e+003,4.359516e+002
3.381990e+003,4.366334e+002
3.382955e+003,4.362142e+002
3.383919e+003,4.367017e+002
3.384883e+003,4.379516e+002
3.385847e+003,4.397749e+002
3.386812e+003,4.388372e+002
3.387776e+003,4.349459e+002
3.388740e+003,4.327981e+002
3.389704e+003,4.336683e+002
3.390668e+003,4.370323e+002
3.391633e+003,4.419538e+002
3.392597e+003,4.421317e+002
3.393561e+003,4.404607e+002
3.394525e+003,4.412405e+002
3.395490e+003,4.423492e+002
3.396454e+003,4.417219e+002
3.397418e+003,4.426547e+002
3.398382e+003,4.469349e+002
3.399347e+003,4.494136e+002
3.400311e+003,4.465412e+002
3.401275e+003,4.444388e+002
3.402239e+003,4.441906e+002
3.403204e+003,4.457312e+002
3.404168e+003,4.486460e+002
3.405132e+003,4.516661e+002
3.406096e+003,4.542016e+002
3.407061e+003,4.560663e+002
3.408025e+003,4.558112e+002
3.408989e+003,4.513056e+002
3.409953e+003,4.473602e+002
3.410917e+003,4.505496e+002
3.411882e+003,4.546376e+002
3.412846e+003,4.555461e+002
3.413810e+003,4.551471e+002
3.414774e+003,4.536841e+002
3.415739e+003,4.530634e+002
3.416703e+003,4.537709e+002
3.417667e+003,4.575021e+002
3.418631e+003,4.624244e+002
3.419595e+003,4.612798e+002
3.420560e+003,4.571363e+002
3.421524e+003,4.591618e+002
3.422488e+003,4.629328e+002
3.423452e+003,4.610594e+002
3.424417e+003,4.578883e+002
3.425381e+003,4.550327e+002
3.426345e+003,4.548496e+002
3.427309e+003,4.577657e+002
3.428274e+003,4.595381e+002
3.429238e+003,4.589260e+002
3.430202e+003,4.586062e+002
3.431166e+003,4.591877e+002
3.432131e+003,4.607057e+002
3.433095e+003,4.628916e+002
3.434059e+003,4.647848e+002
3.435023e+003,4.663763e+002
3.435988e+003,4.674975e+002
3.436952e+003,4.686136e+002
3.437916e+003,4.699826e+002
3.438880e+003,4.716247e+002
3.439844e+003,4.735458e+002
3.440809e+003,4.758472e+002
3.441773e+003,4.796454e+002
3.442737e+003,4.775583e+002
3.443701e+003,4.692701e+002
3.444666e+003,4.697213e+002
3.445630e+003,4.759029e+002
3.446594e+003,4.792048e+002
3.447558e+003,4.805585e+002
3.448522e+003,4.830612e+002
3.449487e+003,4.843042e+002
3.450451e+003,4.815004e+002
3.451415e+003,4.790767e+002
3.452379e+003,4.816142e+002
3.453344e+003,4.852355e+002
3.454308e+003,4.895263e+002
3.455272e+003,4.910159e+002
3.456236e+003,4.902440e+002
3.457201e+003,4.924558e+002
3.458165e+003,4.965411e+002
3.459129e+003,4.972182e+002
3.460093e+003,4.954181e+002
3.461058e+003,4.928547e+002
3.462022e+003,4.911391e+002
3.462986e+003,4.928905e+002
3.463950e+003,4.967879e+002
3.464915e+003,5.050651e+002
3.465879e+003,5.082583e+002
3.466843e+003,5.050902e+002
3.467807e+003,5.030667e+002
3.468771e+003,5.037270e+002
3.469736e+003,5.053328e+002
3.470700e+003,5.069853e+002
3.471664e+003,5.062077e+002
3.472628e+003,5.047560e+002
3.473593e+003,5.091319e+002
3.474557e+003,5.146553e+002
3.475521e+003,5.159538e+002
3.476485e+003,5.167897e+002
3.477449e+003,5.186528e+002
3.478414e+003,5.204636e+002
3.479378e+003,5.218476e+002
3.480342e+003,5.229442e+002
3.481306e+003,5.238917e+002
3.482271e+003,5.267859e+002
3.483235e+003,5.311439e+002
3.484199e+003,5.316464e+002
3.485163e+003,5.300861e+002
3.486128e+003,5.276597e+002
3.487092e+003,5.277888e+002
3.488056e+003,5.334815e+002
3.489020e+003,5.349890e+002
3.489985e+003,5.276000e+002
3.490949e+003,5.257349e+002
3.491913e+003,5.385284e+002
3.492877e+003,5.433542e+002
3.493842e+003,5.383589e+002
3.494806e+003,5.381835e+002
3.495770e+003,5.411776e+002
3.496734e+003,5.429443e+002
3.497698e+003,5.442509e+002
3.498663e+003,5.465270e+002
3.499627e+003,5.487295e+002
3.500591e+003,0.000000e+000
