9.974011e+001,4.727509e+002
1.007043e+002,4.769190e+002
1.016686e+002,4.797677e+002
1.026328e+002,4.802501e+002
1.035970e+002,4.804335e+002
1.045613e+002,4.816513e+002
1.055255e+002,4.827907e+002
1.064897e+002,4.814694e+002
1.074540e+002,4.742539e+002
1.084182e+002,4.676218e+002
1.093824e+002,4.615391e+002
1.103467e+002,4.560892e+002
1.113109e+002,4.515948e+002
1.122751e+002,4.509937e+002
1.132394e+002,4.517537e+002
1.142036e+002,4.524061e+002
1.151678e+002,4.519665e+002
1.161321e+002,4.504494e+002
1.170963e+002,4.488864e+002
1.180605e+002,4.470051e+002
1.190248e+002,4.446508e+002
1.199890e+002,4.417909e+002
1.209532e+002,4.389831e+002
1.219175e+002,4.368529e+002
1.228817e+002,4.355326e+002
1.238459e+002,4.346559e+002
1.248102e+002,4.335279e+002
1.257744e+002,4.308257e+002
1.267386e+002,4.291063e+002
1.277029e+002,4.291354e+002
1.286671e+002,4.303224e+002
1.296313e+002,4.304825e+002
1.305956e+002,4.274137e+002
1.315598e+002,4.236834e+002
1.325240e+002,4.200304e+002
1.334883e+002,4.170060e+002
1.344525e+002,4.149091e+002
1.354167e+002,4.141836e+002
1.363810e+002,4.141160e+002
1.373452e+002,4.140996e+002
1.383094e+002,4.136422e+002
1.392737e+002,4.127553e+002
1.402379e+002,4.111583e+002
1.412021e+002,4.084874e+002
1.421664e+002,4.052511e+002
1.431306e+002,4.022168e+002
1.440948e+002,3.992436e+002
1.450591e+002,3.975114e+002
1.460233e+002,3.970323e+002
1.469875e+002,3.975411e+002
1.479518e+002,3.985406e+002
1.489160e+002,4.009872e+002
1.498802e+002,4.025107e+002
1.508445e+002,4.021763e+002
1.518087e+002,4.001228e+002
1.527729e+002,3.977404e+002
1.537372e+002,3.978178e+002
1.547014e+002,3.983095e+002
1.556656e+002,3.972833e+002
1.566299e+002,3.935987e+002
1.575941e+002,3.872712e+002
1.585583e+002,3.821578e+002
1.595226e+002,3.778069e+002
1.604868e+002,3.748028e+002
1.614510e+002,3.739916e+002
1.624153e+002,3.772041e+002
1.633795e+002,3.780488e+002
1.643438e+002,3.750859e+002
1.653080e+002,3.705362e+002
1.662722e+002,3.674811e+002
1.672365e+002,3.689013e+002
1.682007e+002,3.707496e+002
1.691649e+002,3.719514e+002
1.701292e+002,3.722480e+002
1.710934e+002,3.715518e+002
1.720576e+002,3.680063e+002
1.730219e+002,3.634435e+002
1.739861e+002,3.610572e+002
1.749503e+002,3.617973e+002
1.759146e+002,3.651125e+002
1.768788e+002,3.646754e+002
1.778430e+002,3.608447e+002
1.788073e+002,3.570699e+002
1.797715e+002,3.551969e+002
1.807357e+002,3.558534e+002
1.817000e+002,3.567113e+002
1.826642e+002,3.570113e+002
1.836284e+002,3.565760e+002
1.845927e+002,3.551030e+002
1.855569e+002,3.520451e+002
1.865211e+002,3.486539e+002
1.874854e+002,3.462458e+002
1.884496e+002,3.449221e+002
1.894138e+002,3.447540e+002
1.903781e+002,3.459685e+002
1.913423e+002,3.479568e+002
1.923065e+002,3.487246e+002
1.932708e+002,3.478104e+002
1.942350e+002,3.454013e+002
1.951992e+002,3.428605e+002
1.961635e+002,3.404879e+002
1.971277e+002,3.386609e+002
1.980919e+002,3.375872e+002
1.990562e+002,3.372934e+002
2.000204e+002,3.373599e+002
2.009846e+002,3.379489e+002
2.019489e+002,3.383793e+002
2.029131e+002,3.385490e+002
2.038773e+002,3.384604e+002
2.048416e+002,3.380773e+002
2.058058e+002,3.369791e+002
2.067700e+002,3.356710e+002
2.077343e+002,3.345139e+002
2.086985e+002,3.337682e+002
2.096627e+002,3.333003e+002
2.106270e+002,3.325618e+002
2.115912e+002,3.316486e+002
2.125554e+002,3.308575e+002
2.135197e+002,3.305204e+002
2.144839e+002,3.308672e+002
2.154481e+002,3.303320e+002
2.164124e+002,3.286155e+002
2.173766e+002,3.265772e+002
2.183408e+002,3.255034e+002
2.193051e+002,3.263989e+002
2.202693e+002,3.270660e+002
2.212335e+002,3.268736e+002
2.221978e+002,3.259392e+002
2.231620e+002,3.247098e+002
2.241262e+002,3.237470e+002
2.250904e+002,3.234046e+002
2.260547e+002,3.235709e+002
2.270189e+002,3.239969e+002
2.279831e+002,3.243536e+002
2.289474e+002,3.244692e+002
2.299116e+002,3.246395e+002
2.308758e+002,3.244237e+002
2.318401e+002,3.236136e+002
2.328043e+002,3.222480e+002
2.337685e+002,3.219698e+002
2.347328e+002,3.224913e+002
2.356970e+002,3.227090e+002
2.366612e+002,3.221927e+002
2.376255e+002,3.209424e+002
2.385897e+002,3.203660e+002
2.395539e+002,3.214110e+002
2.405182e+002,3.228437e+002
2.414824e+002,3.239666e+002
2.424466e+002,3.243628e+002
2.434109e+002,3.242801e+002
2.443751e+002,3.236052e+002
2.453393e+002,3.225922e+002
2.463036e+002,3.217319e+002
2.472678e+002,3.216194e+002
2.482320e+002,3.226102e+002
2.491963e+002,3.237500e+002
2.501605e+002,3.249129e+002
2.511247e+002,3.259229e+002
2.520890e+002,3.265836e+002
2.530532e+002,3.268197e+002
2.540174e+002,3.265405e+002
2.549817e+002,3.253995e+002
2.559459e+002,3.241839e+002
2.569102e+002,3.241653e+002
2.578744e+002,3.266476e+002
2.588386e+002,3.281278e+002
2.598029e+002,3.274918e+002
2.607671e+002,3.254343e+002
2.617313e+002,3.234739e+002
2.626956e+002,3.237855e+002
2.636598e+002,3.255079e+002
2.646240e+002,3.273275e+002
2.655883e+002,3.287383e+002
2.665525e+002,3.295050e+002
2.675167e+002,3.294953e+002
2.684810e+002,3.289834e+002
2.694452e+002,3.285516e+002
2.704094e+002,3.281836e+002
2.713737e+002,3.278452e+002
2.723379e+002,3.282194e+002
2.733021e+002,3.295638e+002
2.742664e+002,3.307016e+002
2.752306e+002,3.315434e+002
2.761948e+002,3.321238e+002
2.771591e+002,3.321398e+002
2.781233e+002,3.307572e+002
2.790875e+002,3.295160e+002
2.800518e+002,3.294081e+002
2.810160e+002,3.308688e+002
2.819802e+002,3.331878e+002
2.829445e+002,3.344229e+002
2.839087e+002,3.349198e+002
2.848729e+002,3.353531e+002
2.858372e+002,3.362934e+002
2.868014e+002,3.380277e+002
2.877656e+002,3.390309e+002
2.887299e+002,3.382425e+002
2.896941e+002,3.370391e+002
2.906583e+002,3.367574e+002
2.916226e+002,3.384164e+002
2.925868e+002,3.398143e+002
2.935510e+002,3.404372e+002
2.945153e+002,3.406356e+002
2.954795e+002,3.405770e+002
2.964437e+002,3.401621e+002
2.974080e+002,3.394005e+002
2.983722e+002,3.386554e+002
2.993364e+002,3.382076e+002
3.003007e+002,3.384076e+002
3.012649e+002,3.396112e+002
3.022291e+002,3.415934e+002
3.031934e+002,3.423351e+002
3.041576e+002,3.417689e+002
3.051218e+002,3.405917e+002
3.060861e+002,3.397998e+002
3.070503e+002,3.386194e+002
3.080145e+002,3.380307e+002
3.089788e+002,3.391706e+002
3.099430e+002,3.412758e+002
3.109072e+002,3.428614e+002
3.118715e+002,3.424907e+002
3.128357e+002,3.429988e+002
3.137999e+002,3.455203e+002
3.147642e+002,3.488922e+002
3.157284e+002,3.512995e+002
3.166926e+002,3.506220e+002
3.176569e+002,3.488220e+002
3.186211e+002,3.480848e+002
3.195853e+002,3.485308e+002
3.205496e+002,3.498950e+002
3.215138e+002,3.517798e+002
3.224780e+002,3.544797e+002
3.234423e+002,3.559595e+002
3.244065e+002,3.553781e+002
3.253707e+002,3.533711e+002
3.263350e+002,3.523018e+002
3.272992e+002,3.543026e+002
3.282634e+002,3.559839e+002
3.292277e+002,3.566882e+002
3.301919e+002,3.564471e+002
3.311561e+002,3.558027e+002
3.321204e+002,3.539104e+002
3.330846e+002,3.525400e+002
3.340488e+002,3.536410e+002
3.350131e+002,3.568562e+002
3.359773e+002,3.603130e+002
3.369415e+002,3.592911e+002
3.379058e+002,3.551845e+002
3.388700e+002,3.529608e+002
3.398342e+002,3.541043e+002
3.407985e+002,3.580136e+002
3.417627e+002,3.604493e+002
3.427269e+002,3.596577e+002
3.436912e+002,3.584073e+002
3.446554e+002,3.567373e+002
3.456196e+002,3.550320e+002
3.465839e+002,3.548209e+002
3.475481e+002,3.588193e+002
3.485123e+002,3.629086e+002
3.494765e+002,3.654880e+002
3.504408e+002,3.661768e+002
3.514050e+002,3.658010e+002
3.523692e+002,3.657036e+002
3.533335e+002,3.658196e+002
3.542977e+002,3.659337e+002
3.552619e+002,3.660747e+002
3.562262e+002,3.664026e+002
3.571904e+002,3.671243e+002
3.581546e+002,3.678669e+002
3.591189e+002,3.687672e+002
3.600831e+002,3.700512e+002
3.610473e+002,3.715966e+002
3.620116e+002,3.721429e+002
3.629758e+002,3.715623e+002
3.639400e+002,3.706874e+002
3.649043e+002,3.692818e+002
3.658685e+002,3.675081e+002
3.668327e+002,3.662238e+002
3.677970e+002,3.669396e+002
3.687612e+002,3.682599e+002
3.697254e+002,3.695374e+002
3.706897e+002,3.705457e+002
3.716539e+002,3.713960e+002
3.726181e+002,3.722918e+002
3.735824e+002,3.728857e+002
3.745466e+002,3.730875e+002
3.755108e+002,3.729770e+002
3.764751e+002,3.728236e+002
3.774393e+002,3.734185e+002
3.784035e+002,3.759455e+002
3.793678e+002,3.773388e+002
3.803320e+002,3.764346e+002
3.812962e+002,3.737113e+002
3.822605e+002,3.718811e+002
3.832247e+002,3.729249e+002
3.841889e+002,3.741800e+002
3.851532e+002,3.745901e+002
3.861174e+002,3.741564e+002
3.870816e+002,3.738162e+002
3.880459e+002,3.756290e+002
3.890101e+002,3.779495e+002
3.899743e+002,3.786180e+002
3.909386e+002,3.774020e+002
3.919028e+002,3.754245e+002
3.928670e+002,3.761556e+002
3.938313e+002,3.802337e+002
3.947955e+002,3.830952e+002
3.957597e+002,3.839395e+002
3.967240e+002,3.831185e+002
3.976882e+002,3.819249e+002
3.986524e+002,3.790048e+002
3.996167e+002,3.776548e+002
4.005809e+002,3.790302e+002
4.015451e+002,3.821170e+002
4.025094e+002,3.844889e+002
4.034736e+002,3.839669e+002
4.044378e+002,3.833319e+002
4.054021e+002,3.844499e+002
4.063663e+002,3.868413e+002
4.073305e+002,3.889462e+002
4.082948e+002,3.880719e+002
4.092590e+002,3.844402e+002
4.102232e+002,3.819094e+002
4.111875e+002,3.806731e+002
4.121517e+002,3.806085e+002
4.131159e+002,3.816028e+002
4.140802e+002,3.867499e+002
4.150444e+002,3.904598e+002
4.160086e+002,3.914745e+002
4.169729e+002,3.909375e+002
4.179371e+002,3.905667e+002
4.189013e+002,3.900026e+002
4.198656e+002,3.895233e+002
4.208298e+002,3.903483e+002
4.217940e+002,3.918890e+002
4.227583e+002,3.933660e+002
4.237225e+002,3.941959e+002
4.246867e+002,3.948947e+002
4.256510e+002,3.953227e+002
4.266152e+002,3.952297e+002
4.275794e+002,3.948991e+002
4.285437e+002,3.948646e+002
4.295079e+002,3.953336e+002
4.304721e+002,3.957566e+002
4.314364e+002,3.965284e+002
4.324006e+002,3.976250e+002
4.333648e+002,3.988916e+002
4.343291e+002,4.001222e+002
4.352933e+002,4.004531e+002
4.362575e+002,3.995310e+002
4.372218e+002,3.983491e+002
4.381860e+002,3.976725e+002
4.391502e+002,3.979106e+002
4.401145e+002,3.986996e+002
4.410787e+002,3.997009e+002
4.420429e+002,4.012253e+002
4.430072e+002,4.035012e+002
4.439714e+002,4.065026e+002
4.449356e+002,4.097641e+002
4.458999e+002,4.118645e+002
4.468641e+002,4.134132e+002
4.478283e+002,4.138216e+002
4.487926e+002,4.122885e+002
4.497568e+002,4.086012e+002
4.507210e+002,4.073736e+002
4.516853e+002,4.100609e+002
4.526495e+002,4.121219e+002
4.536137e+002,4.116357e+002
4.545780e+002,4.086132e+002
4.555422e+002,4.055864e+002
4.565064e+002,4.056870e+002
4.574707e+002,4.065855e+002
4.584349e+002,4.064874e+002
4.593991e+002,4.049283e+002
4.603634e+002,4.026387e+002
4.613276e+002,4.017921e+002
4.622918e+002,4.024581e+002
4.632561e+002,4.034107e+002
4.642203e+002,4.046400e+002
4.651845e+002,4.058908e+002
4.661488e+002,4.061656e+002
4.671130e+002,4.033119e+002
4.680772e+002,4.011556e+002
4.690415e+002,4.008144e+002
4.700057e+002,4.015768e+002
4.709699e+002,4.017564e+002
4.719342e+002,3.998634e+002
4.728984e+002,3.980623e+002
4.738626e+002,3.969608e+002
4.748269e+002,3.965925e+002
4.757911e+002,3.972077e+002
4.767553e+002,3.993466e+002
4.777196e+002,4.024955e+002
4.786838e+002,4.044683e+002
4.796480e+002,4.049518e+002
4.806123e+002,4.039260e+002
4.815765e+002,4.015468e+002
4.825407e+002,3.979759e+002
4.835050e+002,3.944498e+002
4.844692e+002,3.896022e+002
4.854334e+002,3.859596e+002
4.863977e+002,3.857232e+002
4.873619e+002,3.895567e+002
4.883261e+002,3.911283e+002
4.892904e+002,3.880803e+002
4.902546e+002,3.845984e+002
4.912188e+002,3.824012e+002
4.921831e+002,3.819412e+002
4.931473e+002,3.824478e+002
4.941115e+002,3.840647e+002
4.950758e+002,3.859721e+002
4.960400e+002,3.869873e+002
4.970042e+002,3.868665e+002
4.979685e+002,3.862700e+002
4.989327e+002,3.873167e+002
4.998969e+002,3.904218e+002
5.008612e+002,3.922332e+002
5.018254e+002,3.915996e+002
5.027896e+002,3.891582e+002
5.037539e+002,3.870650e+002
5.047181e+002,3.867597e+002
5.056823e+002,3.866187e+002
5.066466e+002,3.860435e+002
5.076108e+002,3.853271e+002
5.085750e+002,3.848622e+002
5.095393e+002,3.846911e+002
5.105035e+002,3.844952e+002
5.114677e+002,3.847748e+002
5.124320e+002,3.856022e+002
5.133962e+002,3.865094e+002
5.143605e+002,3.868295e+002
5.153247e+002,3.862275e+002
5.162889e+002,3.869760e+002
5.172532e+002,3.894766e+002
5.182174e+002,3.930226e+002
5.191816e+002,3.972883e+002
5.201459e+002,4.023148e+002
5.211101e+002,4.067235e+002
5.220743e+002,4.098127e+002
5.230386e+002,4.124189e+002
5.240028e+002,4.153687e+002
5.249670e+002,4.191466e+002
5.259313e+002,4.236355e+002
5.268955e+002,4.278770e+002
5.278597e+002,4.314185e+002
5.288240e+002,4.338795e+002
5.297882e+002,4.355894e+002
5.307524e+002,4.375891e+002
5.317167e+002,4.420812e+002
5.326809e+002,4.500361e+002
5.336451e+002,4.572460e+002
5.346094e+002,4.623911e+002
5.355736e+002,4.658100e+002
5.365378e+002,4.687318e+002
5.375021e+002,4.713051e+002
5.384663e+002,4.755188e+002
5.394305e+002,4.822033e+002
5.403948e+002,4.897012e+002
5.413590e+002,4.963128e+002
5.423232e+002,5.009677e+002
5.432875e+002,5.046549e+002
5.442517e+002,5.101302e+002
5.452159e+002,5.162571e+002
5.461802e+002,5.208128e+002
5.471444e+002,5.223456e+002
5.481086e+002,5.212971e+002
5.490729e+002,5.221830e+002
5.500371e+002,5.256177e+002
5.510013e+002,5.280819e+002
5.519656e+002,5.276179e+002
5.529298e+002,5.247481e+002
5.538940e+002,5.239765e+002
5.548583e+002,5.263780e+002
5.558225e+002,5.279229e+002
5.567867e+002,5.285674e+002
5.577510e+002,5.285175e+002
5.587152e+002,5.281716e+002
5.596794e+002,5.282502e+002
5.606437e+002,5.280046e+002
5.616079e+002,5.262690e+002
5.625721e+002,5.235245e+002
5.635364e+002,5.202914e+002
5.645006e+002,5.169553e+002
5.654648e+002,5.135776e+002
5.664291e+002,5.123214e+002
5.673933e+002,5.139927e+002
5.683575e+002,5.155428e+002
5.693218e+002,5.138217e+002
5.702860e+002,5.073882e+002
5.712502e+002,5.019775e+002
5.722145e+002,4.985965e+002
5.731787e+002,4.953665e+002
5.741429e+002,4.929339e+002
5.751072e+002,4.912551e+002
5.760714e+002,4.888421e+002
5.770356e+002,4.836346e+002
5.779999e+002,4.785498e+002
5.789641e+002,4.739771e+002
5.799283e+002,4.699966e+002
5.808926e+002,4.669582e+002
5.818568e+002,4.655815e+002
5.828210e+002,4.654328e+002
5.837853e+002,4.644131e+002
5.847495e+002,4.628587e+002
5.857137e+002,4.609722e+002
5.866780e+002,4.588096e+002
5.876422e+002,4.562510e+002
5.886064e+002,4.536328e+002
5.895707e+002,4.514988e+002
5.905349e+002,4.490523e+002
5.914991e+002,4.452980e+002
5.924634e+002,4.401005e+002
5.934276e+002,4.351358e+002
5.943918e+002,4.320967e+002
5.953560e+002,4.298708e+002
5.963203e+002,4.284857e+002
5.972845e+002,4.272639e+002
5.982487e+002,4.249349e+002
5.992130e+002,4.197966e+002
6.001772e+002,4.131335e+002
6.011414e+002,4.092197e+002
6.021057e+002,4.074746e+002
6.030699e+002,4.061150e+002
6.040341e+002,4.035861e+002
6.049984e+002,4.002326e+002
6.059626e+002,3.962298e+002
6.069268e+002,3.926012e+002
6.078911e+002,3.890596e+002
6.088553e+002,3.845147e+002
6.098195e+002,3.784308e+002
6.107838e+002,3.726023e+002
6.117480e+002,3.691647e+002
6.127122e+002,3.668919e+002
6.136765e+002,3.656334e+002
6.146407e+002,3.645882e+002
6.156049e+002,3.623788e+002
6.165692e+002,3.571046e+002
6.175334e+002,3.493639e+002
6.184976e+002,3.435271e+002
6.194619e+002,3.401281e+002
6.204261e+002,3.379999e+002
6.213903e+002,3.354836e+002
6.223546e+002,3.318479e+002
6.233188e+002,3.288108e+002
6.242830e+002,3.268186e+002
6.252473e+002,3.245948e+002
6.262115e+002,3.213220e+002
6.271757e+002,3.170331e+002
6.281400e+002,3.130118e+002
6.291042e+002,3.101116e+002
6.300684e+002,3.079867e+002
6.310327e+002,3.070148e+002
6.319969e+002,3.068549e+002
6.329611e+002,3.064993e+002
6.339254e+002,3.044105e+002
6.348896e+002,3.002641e+002
6.358538e+002,2.969945e+002
6.368181e+002,2.952285e+002
6.377823e+002,2.935691e+002
6.387465e+002,2.902752e+002
6.397108e+002,2.847560e+002
6.406750e+002,2.797013e+002
6.416392e+002,2.740993e+002
6.426035e+002,2.689653e+002
6.435677e+002,2.651265e+002
6.445319e+002,2.627381e+002
6.454962e+002,2.611085e+002
6.464604e+002,2.605618e+002
6.474246e+002,2.600352e+002
6.483889e+002,2.585077e+002
6.493531e+002,2.558530e+002
6.503173e+002,2.524231e+002
6.512816e+002,2.488205e+002
6.522458e+002,2.452736e+002
6.532100e+002,2.420904e+002
6.541743e+002,2.393549e+002
6.551385e+002,2.374334e+002
6.561027e+002,2.368332e+002
6.570670e+002,2.377237e+002
6.580312e+002,2.373151e+002
6.589954e+002,2.342736e+002
6.599597e+002,2.305206e+002
6.609239e+002,2.272446e+002
6.618881e+002,2.245340e+002
6.628524e+002,2.214597e+002
6.638166e+002,2.166619e+002
6.647808e+002,2.118322e+002
6.657451e+002,2.079444e+002
6.667093e+002,2.049294e+002
6.676735e+002,2.029707e+002
6.686378e+002,2.023786e+002
6.696020e+002,2.030569e+002
6.705662e+002,2.016853e+002
6.715305e+002,1.980359e+002
6.724947e+002,1.937264e+002
6.734589e+002,1.895324e+002
6.744232e+002,1.856987e+002
6.753874e+002,1.826425e+002
6.763516e+002,1.801489e+002
6.773159e+002,1.785334e+002
6.782801e+002,1.782005e+002
6.792443e+002,1.783451e+002
6.802086e+002,1.779455e+002
6.811728e+002,1.765123e+002
6.821370e+002,1.740085e+002
6.831013e+002,1.701674e+002
6.840655e+002,1.660626e+002
6.850297e+002,1.634437e+002
6.859940e+002,1.632666e+002
6.869582e+002,1.648329e+002
6.879224e+002,1.644686e+002
6.888867e+002,1.613046e+002
6.898509e+002,1.578019e+002
6.908151e+002,1.542582e+002
6.917794e+002,1.510490e+002
6.927436e+002,1.487827e+002
6.937078e+002,1.481070e+002
6.946721e+002,1.469211e+002
6.956363e+002,1.441319e+002
6.966005e+002,1.411432e+002
6.975648e+002,1.391851e+002
6.985290e+002,1.385624e+002
6.994932e+002,1.380926e+002
7.004575e+002,1.357975e+002
7.014217e+002,1.328421e+002
7.023859e+002,1.311432e+002
7.033502e+002,1.314084e+002
7.043144e+002,1.326051e+002
7.052786e+002,1.320751e+002
7.062429e+002,1.278296e+002
7.072071e+002,1.247156e+002
7.081713e+002,1.243014e+002
7.091356e+002,1.242940e+002
7.100998e+002,1.221775e+002
7.110640e+002,1.171132e+002
7.120283e+002,1.127645e+002
7.129925e+002,1.118263e+002
7.139567e+002,1.117072e+002
7.149210e+002,1.111656e+002
7.158852e+002,1.100225e+002
7.168494e+002,1.088018e+002
7.178137e+002,1.081976e+002
7.187779e+002,1.082430e+002
7.197421e+002,1.079324e+002
7.207064e+002,1.070410e+002
7.216706e+002,1.061757e+002
7.226348e+002,1.063392e+002
7.235991e+002,1.081415e+002
7.245633e+002,1.083642e+002
7.255275e+002,1.045125e+002
7.264918e+002,1.011070e+002
7.274560e+002,1.000924e+002
7.284202e+002,1.010524e+002
7.293845e+002,1.020778e+002
7.303487e+002,1.019471e+002
7.313129e+002,1.015984e+002
7.322772e+002,1.020844e+002
7.332414e+002,1.028905e+002
7.342056e+002,1.032892e+002
7.351699e+002,1.028750e+002
7.361341e+002,1.019204e+002
7.370983e+002,1.009453e+002
7.380626e+002,9.940876e+001
7.390268e+002,9.785708e+001
7.399910e+002,9.656147e+001
7.409553e+002,9.584042e+001
7.419195e+002,9.599105e+001
7.428837e+002,9.689360e+001
7.438480e+002,9.783109e+001
7.448122e+002,9.954829e+001
7.457764e+002,1.015154e+002
7.467407e+002,1.032461e+002
7.477049e+002,1.046007e+002
7.486691e+002,1.058292e+002
7.496334e+002,1.062406e+002
7.505976e+002,1.062698e+002
7.515618e+002,1.075079e+002
7.525261e+002,1.100899e+002
7.534903e+002,1.126369e+002
7.544545e+002,1.131119e+002
7.554188e+002,1.112058e+002
7.563830e+002,1.109212e+002
7.573472e+002,1.124968e+002
7.583115e+002,1.137149e+002
7.592757e+002,1.134300e+002
7.602399e+002,1.121637e+002
7.612042e+002,1.119637e+002
7.621684e+002,1.134267e+002
7.631326e+002,1.152020e+002
7.640969e+002,1.172849e+002
7.650611e+002,1.193498e+002
7.660253e+002,1.210373e+002
7.669896e+002,1.222205e+002
7.679538e+002,1.234877e+002
7.689180e+002,1.256353e+002
7.698823e+002,1.276527e+002
7.708465e+002,1.284619e+002
7.718107e+002,1.279502e+002
7.727750e+002,1.267494e+002
7.737392e+002,1.257372e+002
7.747034e+002,1.241715e+002
7.756677e+002,1.241449e+002
7.766319e+002,1.264873e+002
7.775961e+002,1.293464e+002
7.785604e+002,1.312091e+002
7.795246e+002,1.317076e+002
7.804888e+002,1.315617e+002
7.814531e+002,1.309407e+002
7.824173e+002,1.301984e+002
7.833815e+002,1.296951e+002
7.843458e+002,1.295802e+002
7.853100e+002,1.297212e+002
7.862742e+002,1.297613e+002
7.872385e+002,1.293331e+002
7.882027e+002,1.289972e+002
7.891669e+002,1.293081e+002
7.901312e+002,1.284835e+002
7.910954e+002,1.249882e+002
7.920596e+002,1.196576e+002
7.930239e+002,1.169456e+002
7.939881e+002,1.201027e+002
7.949523e+002,1.223298e+002
7.959166e+002,1.205706e+002
7.968808e+002,1.171107e+002
7.978450e+002,1.151373e+002
7.988093e+002,1.162958e+002
7.997735e+002,1.187721e+002
8.007377e+002,1.195597e+002
8.017020e+002,1.192593e+002
8.026662e+002,1.186770e+002
8.036304e+002,1.180334e+002
8.045947e+002,1.169555e+002
8.055589e+002,1.146481e+002
8.065231e+002,1.101600e+002
8.074874e+002,1.065101e+002
8.084516e+002,1.031985e+002
8.094158e+002,1.010023e+002
8.103801e+002,1.015196e+002
8.113443e+002,1.046867e+002
8.123085e+002,1.072878e+002
8.132728e+002,1.065543e+002
8.142370e+002,1.044102e+002
8.152012e+002,1.013705e+002
8.161655e+002,9.777380e+001
8.171297e+002,9.461139e+001
8.180939e+002,9.289603e+001
8.190582e+002,9.274168e+001
8.200224e+002,9.224917e+001
8.209866e+002,9.105387e+001
8.219509e+002,8.965658e+001
8.229151e+002,8.785154e+001
8.238793e+002,8.575912e+001
8.248436e+002,8.391892e+001
8.258078e+002,8.275814e+001
8.267720e+002,8.113311e+001
8.277363e+002,7.802654e+001
8.287005e+002,7.483381e+001
8.296647e+002,7.306415e+001
8.306290e+002,7.280618e+001
8.315932e+002,7.240866e+001
8.325574e+002,6.967236e+001
8.335217e+002,6.618739e+001
8.344859e+002,6.498790e+001
8.354501e+002,6.564928e+001
8.364144e+002,6.625320e+001
8.373786e+002,6.533756e+001
8.383428e+002,6.312038e+001
8.393071e+002,6.118613e+001
8.402713e+002,5.977242e+001
8.412355e+002,5.838242e+001
8.421998e+002,5.629757e+001
8.431640e+002,5.428935e+001
8.441282e+002,5.391825e+001
8.450925e+002,5.610870e+001
8.460567e+002,5.771869e+001
8.470209e+002,5.561196e+001
8.479852e+002,5.266018e+001
8.489494e+002,5.120129e+001
8.499136e+002,5.164581e+001
8.508779e+002,5.300528e+001
8.518421e+002,5.397782e+001
8.528063e+002,5.442280e+001
8.537706e+002,5.381478e+001
8.547348e+002,5.187067e+001
8.556990e+002,4.996645e+001
8.566633e+002,4.874713e+001
8.576275e+002,4.806978e+001
8.585917e+002,4.758081e+001
8.595560e+002,4.759023e+001
8.605202e+002,4.783149e+001
8.614844e+002,4.840097e+001
8.624487e+002,4.922946e+001
8.634129e+002,5.027776e+001
8.643771e+002,5.126476e+001
8.653414e+002,5.133846e+001
8.663056e+002,4.895815e+001
8.672698e+002,4.614507e+001
8.682341e+002,4.614227e+001
8.691983e+002,4.907621e+001
8.701625e+002,5.259343e+001
8.711268e+002,5.407088e+001
8.720910e+002,5.311991e+001
8.730552e+002,5.123164e+001
8.740195e+002,4.881143e+001
8.749837e+002,4.724318e+001
8.759479e+002,4.646048e+001
8.769122e+002,4.619204e+001
8.778764e+002,4.629820e+001
8.788406e+002,4.677250e+001
8.798049e+002,4.692151e+001
8.807691e+002,4.663312e+001
8.817333e+002,4.643759e+001
8.826976e+002,4.660526e+001
8.836618e+002,4.717139e+001
8.846260e+002,4.805359e+001
8.855903e+002,4.916721e+001
8.865545e+002,5.047289e+001
8.875187e+002,5.085464e+001
8.884830e+002,4.970304e+001
8.894472e+002,4.867067e+001
8.904114e+002,4.877335e+001
8.913757e+002,4.993147e+001
8.923399e+002,5.133273e+001
8.933041e+002,5.281679e+001
8.942684e+002,5.358457e+001
8.952326e+002,5.379178e+001
8.961968e+002,5.334289e+001
8.971611e+002,5.179247e+001
8.981253e+002,4.927913e+001
8.990895e+002,4.702974e+001
9.000538e+002,4.667961e+001
9.010180e+002,4.804387e+001
9.019822e+002,5.038345e+001
9.029465e+002,5.397708e+001
9.039107e+002,5.765784e+001
9.048749e+002,6.025423e+001
9.058392e+002,6.160101e+001
9.068034e+002,6.256641e+001
9.077676e+002,6.314666e+001
9.087319e+002,6.360975e+001
9.096961e+002,6.425451e+001
9.106603e+002,6.499666e+001
9.116246e+002,6.501520e+001
9.125888e+002,6.379019e+001
9.135530e+002,6.330391e+001
9.145173e+002,6.783879e+001
9.154815e+002,7.386736e+001
9.164457e+002,7.705446e+001
9.174100e+002,7.711617e+001
9.183742e+002,7.610136e+001
9.193384e+002,7.608684e+001
9.203027e+002,7.703854e+001
9.212669e+002,7.886210e+001
9.222311e+002,8.121571e+001
9.231954e+002,8.315072e+001
9.241596e+002,8.460743e+001
9.251238e+002,8.632644e+001
9.260881e+002,8.940491e+001
9.270523e+002,9.436477e+001
9.280165e+002,9.885872e+001
9.289808e+002,1.008489e+002
9.299450e+002,1.018803e+002
9.309092e+002,1.028165e+002
9.318735e+002,1.038406e+002
9.328377e+002,1.048584e+002
9.338019e+002,1.058183e+002
9.347662e+002,1.067103e+002
9.357304e+002,1.085319e+002
9.366946e+002,1.120544e+002
9.376589e+002,1.157422e+002
9.386231e+002,1.190413e+002
9.395873e+002,1.215869e+002
9.405516e+002,1.230101e+002
9.415158e+002,1.232355e+002
9.424800e+002,1.233408e+002
9.434443e+002,1.234401e+002
9.444085e+002,1.239531e+002
9.453727e+002,1.253337e+002
9.463370e+002,1.274116e+002
9.473012e+002,1.295065e+002
9.482654e+002,1.308784e+002
9.492297e+002,1.313309e+002
9.501939e+002,1.314254e+002
9.511581e+002,1.317456e+002
9.521224e+002,1.323456e+002
9.530866e+002,1.330081e+002
9.540508e+002,1.336276e+002
9.550151e+002,1.340944e+002
9.559793e+002,1.337130e+002
9.569435e+002,1.339218e+002
9.579078e+002,1.370441e+002
9.588720e+002,1.404444e+002
9.598362e+002,1.421917e+002
9.608005e+002,1.422939e+002
9.617647e+002,1.419247e+002
9.627289e+002,1.419201e+002
9.636932e+002,1.419474e+002
9.646574e+002,1.413142e+002
9.656216e+002,1.399731e+002
9.665859e+002,1.381310e+002
9.675501e+002,1.358896e+002
9.685143e+002,1.342974e+002
9.694786e+002,1.355069e+002
9.704428e+002,1.413811e+002
9.714070e+002,1.453859e+002
9.723713e+002,1.430483e+002
9.733355e+002,1.422636e+002
9.742997e+002,1.484599e+002
9.752640e+002,1.597214e+002
9.762282e+002,1.708902e+002
9.771924e+002,1.796574e+002
9.781567e+002,1.847065e+002
9.791209e+002,1.821144e+002
9.800851e+002,1.763297e+002
9.810494e+002,1.736095e+002
9.820136e+002,1.757530e+002
9.829778e+002,1.805700e+002
9.839421e+002,1.847088e+002
9.849063e+002,1.874821e+002
9.858705e+002,1.902103e+002
9.868348e+002,1.951231e+002
9.877990e+002,1.990795e+002
9.887632e+002,2.006636e+002
9.897275e+002,2.005443e+002
9.906917e+002,1.993315e+002
9.916559e+002,1.964037e+002
9.926202e+002,1.938002e+002
9.935844e+002,1.960956e+002
9.945486e+002,1.992813e+002
9.955129e+002,1.998167e+002
9.964771e+002,1.976373e+002
9.974413e+002,1.941960e+002
9.984056e+002,1.905858e+002
9.993698e+002,1.866890e+002
1.000334e+003,1.845643e+002
1.001298e+003,1.855252e+002
1.002263e+003,1.862850e+002
1.003227e+003,1.860013e+002
1.004191e+003,1.854841e+002
1.005155e+003,1.854049e+002
1.006119e+003,1.857546e+002
1.007084e+003,1.871696e+002
1.008048e+003,1.923235e+002
1.009012e+003,1.971966e+002
1.009976e+003,1.977993e+002
1.010941e+003,1.958674e+002
1.011905e+003,1.954580e+002
1.012869e+003,1.988999e+002
1.013833e+003,2.045236e+002
1.014798e+003,2.084464e+002
1.015762e+003,2.109740e+002
1.016726e+003,2.130903e+002
1.017690e+003,2.137916e+002
1.018654e+003,2.148070e+002
1.019619e+003,2.173138e+002
1.020583e+003,2.209713e+002
1.021547e+003,2.245765e+002
1.022511e+003,2.276745e+002
1.023476e+003,2.303914e+002
1.024440e+003,2.331365e+002
1.025404e+003,2.361339e+002
1.026368e+003,2.394553e+002
1.027333e+003,2.431045e+002
1.028297e+003,2.471529e+002
1.029261e+003,2.515977e+002
1.030225e+003,2.560329e+002
1.031190e+003,2.598333e+002
1.032154e+003,2.639311e+002
1.033118e+003,2.678458e+002
1.034082e+003,2.707107e+002
1.035047e+003,2.728649e+002
1.036011e+003,2.754551e+002
1.036975e+003,2.786176e+002
1.037939e+003,2.812014e+002
1.038903e+003,2.823010e+002
1.039868e+003,2.846194e+002
1.040832e+003,2.900056e+002
1.041796e+003,2.972970e+002
1.042760e+003,3.040154e+002
1.043725e+003,3.086418e+002
1.044689e+003,3.117129e+002
1.045653e+003,3.145736e+002
1.046617e+003,3.172264e+002
1.047582e+003,3.198841e+002
1.048546e+003,3.229831e+002
1.049510e+003,3.271027e+002
1.050474e+003,3.327136e+002
1.051438e+003,3.394099e+002
1.052403e+003,3.450829e+002
1.053367e+003,3.484998e+002
1.054331e+003,3.516623e+002
1.055295e+003,3.550209e+002
1.056260e+003,3.590330e+002
1.057224e+003,3.646641e+002
1.058188e+003,3.718184e+002
1.059152e+003,3.787493e+002
1.060117e+003,3.832855e+002
1.061081e+003,3.861032e+002
1.062045e+003,3.906909e+002
1.063009e+003,3.965086e+002
1.063974e+003,4.024445e+002
1.064938e+003,4.090209e+002
1.065902e+003,4.161688e+002
1.066866e+003,4.229449e+002
1.067830e+003,4.290656e+002
1.068795e+003,4.334259e+002
1.069759e+003,4.350815e+002
1.070723e+003,4.364760e+002
1.071687e+003,4.378706e+002
1.072652e+003,4.405686e+002
1.073616e+003,4.466458e+002
1.074580e+003,4.565816e+002
1.075544e+003,4.668771e+002
1.076509e+003,4.721520e+002
1.077473e+003,4.733033e+002
1.078437e+003,4.754910e+002
1.079401e+003,4.790832e+002
1.080365e+003,4.841136e+002
1.081330e+003,4.903758e+002
1.082294e+003,4.977409e+002
1.083258e+003,5.067419e+002
1.084222e+003,5.208032e+002
1.085187e+003,5.300646e+002
1.086151e+003,5.313370e+002
1.087115e+003,5.290330e+002
1.088079e+003,5.238627e+002
1.089043e+003,5.178203e+002
1.090008e+003,5.151555e+002
1.090972e+003,5.192955e+002
1.091936e+003,5.271443e+002
1.092900e+003,5.305233e+002
1.093865e+003,5.300308e+002
1.094829e+003,5.289972e+002
1.095793e+003,5.282919e+002
1.096757e+003,5.277696e+002
1.097722e+003,5.269319e+002
1.098686e+003,5.253145e+002
1.099650e+003,5.227390e+002
1.100614e+003,5.199325e+002
1.101578e+003,5.169550e+002
1.102543e+003,5.130211e+002
1.103507e+003,5.089500e+002
1.104471e+003,5.054703e+002
1.105435e+003,5.021999e+002
1.106400e+003,4.981424e+002
1.107364e+003,4.930456e+002
1.108328e+003,4.873599e+002
1.109292e+003,4.799469e+002
1.110257e+003,4.709563e+002
1.111221e+003,4.639596e+002
1.112185e+003,4.603174e+002
1.113149e+003,4.576599e+002
1.114114e+003,4.533550e+002
1.115078e+003,4.476918e+002
1.116042e+003,4.413597e+002
1.117006e+003,4.328338e+002
1.117970e+003,4.260109e+002
1.118935e+003,4.241328e+002
1.119899e+003,4.231461e+002
1.120863e+003,4.178091e+002
1.121827e+003,4.072591e+002
1.122792e+003,3.957269e+002
1.123756e+003,3.877766e+002
1.124720e+003,3.824939e+002
1.125684e+003,3.773567e+002
1.126649e+003,3.739532e+002
1.127613e+003,3.682527e+002
1.128577e+003,3.554895e+002
1.129541e+003,3.408145e+002
1.130505e+003,3.334026e+002
1.131470e+003,3.344709e+002
1.132434e+003,3.340313e+002
1.133398e+003,3.283481e+002
1.134362e+003,3.217302e+002
1.135327e+003,3.150209e+002
1.136291e+003,3.085729e+002
1.137255e+003,3.028737e+002
1.138219e+003,2.981500e+002
1.139184e+003,2.942259e+002
1.140148e+003,2.907879e+002
1.141112e+003,2.873459e+002
1.142076e+003,2.820702e+002
1.143041e+003,2.749201e+002
1.144005e+003,2.685666e+002
1.144969e+003,2.641362e+002
1.145933e+003,2.608297e+002
1.146897e+003,2.576826e+002
1.147862e+003,2.544106e+002
1.148826e+003,2.498294e+002
1.149790e+003,2.422363e+002
1.150754e+003,2.351743e+002
1.151719e+003,2.314294e+002
1.152683e+003,2.294127e+002
1.153647e+003,2.265310e+002
1.154611e+003,2.218372e+002
1.155576e+003,2.161776e+002
1.156540e+003,2.104864e+002
1.157504e+003,2.041609e+002
1.158468e+003,1.989691e+002
1.159432e+003,1.960324e+002
1.160397e+003,1.933719e+002
1.161361e+003,1.913329e+002
1.162325e+003,1.894506e+002
1.163289e+003,1.867420e+002
1.164254e+003,1.828551e+002
1.165218e+003,1.784624e+002
1.166182e+003,1.736997e+002
1.167146e+003,1.694542e+002
1.168111e+003,1.662267e+002
1.169075e+003,1.636721e+002
1.170039e+003,1.617460e+002
1.171003e+003,1.602936e+002
1.171968e+003,1.582857e+002
1.172932e+003,1.543195e+002
1.173896e+003,1.484575e+002
1.174860e+003,1.432802e+002
1.175824e+003,1.385445e+002
1.176789e+003,1.341359e+002
1.177753e+003,1.299770e+002
1.178717e+003,1.264593e+002
1.179681e+003,1.241132e+002
1.180646e+003,1.227177e+002
1.181610e+003,1.212240e+002
1.182574e+003,1.191308e+002
1.183538e+003,1.166364e+002
1.184503e+003,1.141204e+002
1.185467e+003,1.114900e+002
1.186431e+003,1.082302e+002
1.187395e+003,1.040867e+002
1.188359e+003,9.992127e+001
1.189324e+003,9.705659e+001
1.190288e+003,9.565458e+001
1.191252e+003,9.393401e+001
1.192216e+003,9.100259e+001
1.193181e+003,8.881637e+001
1.194145e+003,8.791528e+001
1.195109e+003,8.682471e+001
1.196073e+003,8.502264e+001
1.197038e+003,8.272266e+001
1.198002e+003,7.997674e+001
1.198966e+003,7.667474e+001
1.199930e+003,7.372105e+001
1.200895e+003,7.318922e+001
1.201859e+003,7.413763e+001
1.202823e+003,7.244729e+001
1.203787e+003,6.735701e+001
1.204751e+003,6.269072e+001
1.205716e+003,6.212461e+001
1.206680e+003,6.381965e+001
1.207644e+003,6.177369e+001
1.208608e+003,5.451811e+001
1.209573e+003,4.853667e+001
1.210537e+003,4.611972e+001
1.211501e+003,4.536472e+001
1.212465e+003,4.652485e+001
1.213430e+003,4.846426e+001
1.214394e+003,4.947669e+001
1.215358e+003,4.866073e+001
1.216322e+003,4.636793e+001
1.217286e+003,4.342245e+001
1.218251e+003,4.018983e+001
1.219215e+003,3.782462e+001
1.220179e+003,3.668021e+001
1.221143e+003,3.595208e+001
1.222108e+003,3.555102e+001
1.223072e+003,3.534945e+001
1.224036e+003,3.490609e+001
1.225000e+003,3.399322e+001
1.225965e+003,3.315014e+001
1.226929e+003,3.286630e+001
1.227893e+003,3.167216e+001
1.228857e+003,2.868819e+001
1.229822e+003,2.605959e+001
1.230786e+003,2.570210e+001
1.231750e+003,2.726442e+001
1.232714e+003,2.881665e+001
1.233678e+003,2.882973e+001
1.234643e+003,2.755024e+001
1.235607e+003,2.622104e+001
1.236571e+003,2.522042e+001
1.237535e+003,2.478276e+001
1.238500e+003,2.499809e+001
1.239464e+003,2.500636e+001
1.240428e+003,2.398847e+001
1.241392e+003,2.230772e+001
1.242357e+003,2.098289e+001
1.243321e+003,2.055940e+001
1.244285e+003,2.063863e+001
1.245249e+003,2.071917e+001
1.246214e+003,2.097516e+001
1.247178e+003,2.174620e+001
1.248142e+003,2.245496e+001
1.249106e+003,2.167607e+001
1.250070e+003,1.869073e+001
1.251035e+003,1.561888e+001
1.251999e+003,1.611182e+001
1.252963e+003,2.042376e+001
1.253927e+003,2.142781e+001
1.254892e+003,1.551039e+001
1.255856e+003,1.168455e+001
1.256820e+003,1.306748e+001
1.257784e+003,1.579316e+001
1.258749e+003,1.724366e+001
1.259713e+003,1.722105e+001
1.260677e+003,1.650663e+001
1.261641e+003,1.556404e+001
1.262605e+003,1.473092e+001
1.263570e+003,1.481519e+001
1.264534e+003,1.591854e+001
1.265498e+003,1.607300e+001
1.266462e+003,1.484285e+001
1.267427e+003,1.388031e+001
1.268391e+003,1.370870e+001
1.269355e+003,1.383125e+001
1.270319e+003,1.401389e+001
1.271284e+003,1.447805e+001
1.272248e+003,1.443700e+001
1.273212e+003,1.339415e+001
1.274176e+003,1.288319e+001
1.275141e+003,1.280586e+001
1.276105e+003,1.278624e+001
1.277069e+003,1.346513e+001
1.278033e+003,1.494454e+001
1.278997e+003,1.600528e+001
1.279962e+003,1.546527e+001
1.280926e+003,1.398463e+001
1.281890e+003,1.342694e+001
1.282854e+003,1.272413e+001
1.283819e+003,1.212243e+001
1.284783e+003,1.297285e+001
1.285747e+003,1.324286e+001
1.286711e+003,1.146017e+001
1.287676e+003,9.203686e+000
1.288640e+003,9.008701e+000
1.289604e+003,1.116690e+001
1.290568e+003,1.304608e+001
1.291532e+003,1.234362e+001
1.292497e+003,1.021597e+001
1.293461e+003,9.340546e+000
1.294425e+003,9.708618e+000
1.295389e+003,1.041553e+001
1.296354e+003,1.115843e+001
1.297318e+003,1.171099e+001
1.298282e+003,1.189963e+001
1.299246e+003,1.167528e+001
1.300211e+003,1.096835e+001
1.301175e+003,9.688339e+000
1.302139e+003,9.314911e+000
1.303103e+003,1.058953e+001
1.304068e+003,1.160356e+001
1.305032e+003,1.101361e+001
1.305996e+003,9.636959e+000
1.306960e+003,9.321617e+000
1.307924e+003,1.080220e+001
1.308889e+003,1.275567e+001
1.309853e+003,1.301373e+001
1.310817e+003,1.102688e+001
1.311781e+003,8.723171e+000
1.312746e+003,6.638981e+000
1.313710e+003,6.226269e+000
1.314674e+003,8.681511e+000
1.315638e+003,1.128497e+001
1.316603e+003,1.136559e+001
1.317567e+003,9.364620e+000
1.318531e+003,7.903671e+000
1.319495e+003,8.458618e+000
1.320459e+003,1.009771e+001
1.321424e+003,1.137025e+001
1.322388e+003,1.213538e+001
1.323352e+003,1.318320e+001
1.324316e+003,1.439169e+001
1.325281e+003,1.440295e+001
1.326245e+003,1.221758e+001
1.327209e+003,9.837978e+000
1.328173e+003,1.051785e+001
1.329138e+003,1.421405e+001
1.330102e+003,1.646900e+001
1.331066e+003,1.691716e+001
1.332030e+003,1.689416e+001
1.332995e+003,1.626432e+001
1.333959e+003,1.512261e+001
1.334923e+003,1.283762e+001
1.335887e+003,1.028582e+001
1.336851e+003,9.632183e+000
1.337816e+003,1.172504e+001
1.338780e+003,1.436517e+001
1.339744e+003,1.412172e+001
1.340708e+003,1.092836e+001
1.341673e+003,9.594398e+000
1.342637e+003,1.122269e+001
1.343601e+003,1.240376e+001
1.344565e+003,1.307642e+001
1.345530e+003,1.354380e+001
1.346494e+003,1.349016e+001
1.347458e+003,1.326077e+001
1.348422e+003,1.397495e+001
1.349386e+003,1.583686e+001
1.350351e+003,1.712075e+001
1.351315e+003,1.692402e+001
1.352279e+003,1.571023e+001
1.353243e+003,1.335145e+001
1.354208e+003,1.044937e+001
1.355172e+003,9.294575e+000
1.356136e+003,1.062962e+001
1.357100e+003,1.264261e+001
1.358065e+003,1.379803e+001
1.359029e+003,1.426038e+001
1.359993e+003,1.388748e+001
1.360957e+003,1.221353e+001
1.361922e+003,1.132819e+001
1.362886e+003,1.256171e+001
1.363850e+003,1.376304e+001
1.364814e+003,1.348717e+001
1.365778e+003,1.215603e+001
1.366743e+003,1.061179e+001
1.367707e+003,9.287067e+000
1.368671e+003,8.321018e+000
1.369635e+003,7.951618e+000
1.370600e+003,8.407509e+000
1.371564e+003,9.502590e+000
1.372528e+003,1.109166e+001
1.373492e+003,1.254490e+001
1.374457e+003,1.378534e+001
1.375421e+003,1.456409e+001
1.376385e+003,1.549771e+001
1.377349e+003,1.594003e+001
1.378313e+003,1.411603e+001
1.379278e+003,1.009515e+001
1.380242e+003,6.861973e+000
1.381206e+003,6.410748e+000
1.382170e+003,7.792381e+000
1.383135e+003,1.010349e+001
1.384099e+003,1.280330e+001
1.385063e+003,1.409908e+001
1.386027e+003,1.308094e+001
1.386992e+003,1.180746e+001
1.387956e+003,1.272749e+001
1.388920e+003,1.464505e+001
1.389884e+003,1.446200e+001
1.390849e+003,1.215502e+001
1.391813e+003,1.042302e+001
1.392777e+003,9.032177e+000
1.393741e+003,7.999092e+000
1.394705e+003,8.459267e+000
1.395670e+003,9.923378e+000
1.396634e+003,1.174665e+001
1.397598e+003,1.316444e+001
1.398562e+003,1.341784e+001
1.399527e+003,1.242847e+001
1.400491e+003,1.101194e+001
1.401455e+003,1.001641e+001
1.402419e+003,9.384621e+000
1.403384e+003,9.372612e+000
1.404348e+003,9.614727e+000
1.405312e+003,9.714539e+000
1.406276e+003,1.175170e+001
1.407240e+003,1.372633e+001
1.408205e+003,1.280213e+001
1.409169e+003,1.000784e+001
1.410133e+003,7.825104e+000
1.411097e+003,7.083431e+000
1.412062e+003,7.216183e+000
1.413026e+003,8.251984e+000
1.413990e+003,1.006021e+001
1.414954e+003,1.026179e+001
1.415919e+003,8.066910e+000
1.416883e+003,7.858028e+000
1.417847e+003,1.145374e+001
1.418811e+003,1.448326e+001
1.419776e+003,1.461890e+001
1.420740e+003,1.324657e+001
1.421704e+003,1.214008e+001
1.422668e+003,1.162151e+001
1.423632e+003,1.187782e+001
1.424597e+003,1.316773e+001
1.425561e+003,1.445242e+001
1.426525e+003,1.468905e+001
1.427489e+003,1.436145e+001
1.428454e+003,1.382989e+001
1.429418e+003,1.315896e+001
1.430382e+003,1.273056e+001
1.431346e+003,1.253314e+001
1.432311e+003,1.211207e+001
1.433275e+003,1.149883e+001
1.434239e+003,1.129882e+001
1.435203e+003,1.109422e+001
1.436167e+003,9.571705e+000
1.437132e+003,9.317173e+000
1.438096e+003,1.317449e+001
1.439060e+003,1.634068e+001
1.440024e+003,1.606530e+001
1.440989e+003,1.387004e+001
1.441953e+003,1.121400e+001
1.442917e+003,8.767769e+000
1.443881e+003,8.209080e+000
1.444846e+003,1.166013e+001
1.445810e+003,1.774371e+001
1.446774e+003,1.996033e+001
1.447738e+003,1.603605e+001
1.448703e+003,1.325602e+001
1.449667e+003,1.225753e+001
1.450631e+003,1.173111e+001
1.451595e+003,1.174817e+001
1.452559e+003,1.225294e+001
1.453524e+003,1.315680e+001
1.454488e+003,1.424568e+001
1.455452e+003,1.532123e+001
1.456416e+003,1.620559e+001
1.457381e+003,1.652266e+001
1.458345e+003,1.585818e+001
1.459309e+003,1.417800e+001
1.460273e+003,1.181860e+001
1.461238e+003,8.725880e+000
1.462202e+003,7.767899e+000
1.463166e+003,1.044923e+001
1.464130e+003,1.381560e+001
1.465094e+003,1.636077e+001
1.466059e+003,1.740195e+001
1.467023e+003,1.574594e+001
1.467987e+003,1.197023e+001
1.468951e+003,1.011269e+001
1.469916e+003,1.287928e+001
1.470880e+003,1.761044e+001
1.471844e+003,2.038905e+001
1.472808e+003,2.090090e+001
1.473773e+003,2.003041e+001
1.474737e+003,1.817203e+001
1.475701e+003,1.713454e+001
1.476665e+003,1.866594e+001
1.477630e+003,2.082677e+001
1.478594e+003,2.024641e+001
1.479558e+003,1.736061e+001
1.480522e+003,1.641087e+001
1.481486e+003,1.872746e+001
1.482451e+003,2.115401e+001
1.483415e+003,2.253097e+001
1.484379e+003,2.293213e+001
1.485343e+003,2.191267e+001
1.486308e+003,2.036425e+001
1.487272e+003,1.952381e+001
1.488236e+003,1.962316e+001
1.489200e+003,2.057807e+001
1.490165e+003,2.249267e+001
1.491129e+003,2.452443e+001
1.492093e+003,2.488379e+001
1.493057e+003,2.359988e+001
1.494021e+003,2.321499e+001
1.494986e+003,2.435619e+001
1.495950e+003,2.594652e+001
1.496914e+003,2.759126e+001
1.497878e+003,2.891786e+001
1.498843e+003,2.959264e+001
1.499807e+003,3.005420e+001
1.500771e+003,3.113693e+001
1.501735e+003,3.290946e+001
1.502700e+003,3.436928e+001
1.503664e+003,3.451212e+001
1.504628e+003,3.358614e+001
1.505592e+003,3.280594e+001
1.506557e+003,3.253957e+001
1.507521e+003,3.276767e+001
1.508485e+003,3.294314e+001
1.509449e+003,3.371831e+001
1.510413e+003,3.607670e+001
1.511378e+003,3.800019e+001
1.512342e+003,3.796106e+001
1.513306e+003,3.662906e+001
1.514270e+003,3.526687e+001
1.515235e+003,3.428375e+001
1.516199e+003,3.354932e+001
1.517163e+003,3.310416e+001
1.518127e+003,3.273332e+001
1.519092e+003,3.118533e+001
1.520056e+003,2.751700e+001
1.521020e+003,2.557332e+001
1.521984e+003,2.693832e+001
1.522948e+003,2.754073e+001
1.523913e+003,2.538718e+001
1.524877e+003,2.351278e+001
1.525841e+003,2.535264e+001
1.526805e+003,2.932199e+001
1.527770e+003,3.085394e+001
1.528734e+003,2.838152e+001
1.529698e+003,2.481435e+001
1.530662e+003,2.299953e+001
1.531627e+003,2.257140e+001
1.532591e+003,2.195617e+001
1.533555e+003,2.113699e+001
1.534519e+003,2.080674e+001
1.535484e+003,2.184376e+001
1.536448e+003,2.223714e+001
1.537412e+003,2.065002e+001
1.538376e+003,1.819429e+001
1.539340e+003,1.544317e+001
1.540305e+003,1.324849e+001
1.541269e+003,1.377069e+001
1.542233e+003,1.734377e+001
1.543197e+003,2.009931e+001
1.544162e+003,1.905661e+001
1.545126e+003,1.591684e+001
1.546090e+003,1.390228e+001
1.547054e+003,1.370245e+001
1.548019e+003,1.513594e+001
1.548983e+003,1.770467e+001
1.549947e+003,1.953448e+001
1.550911e+003,1.977179e+001
1.551875e+003,1.932230e+001
1.552840e+003,1.958244e+001
1.553804e+003,2.067135e+001
1.554768e+003,2.150889e+001
1.555732e+003,2.142781e+001
1.556697e+003,2.039511e+001
1.557661e+003,1.823311e+001
1.558625e+003,1.593070e+001
1.559589e+003,1.478622e+001
1.560554e+003,1.455944e+001
1.561518e+003,1.481511e+001
1.562482e+003,1.544660e+001
1.563446e+003,1.592121e+001
1.564411e+003,1.602261e+001
1.565375e+003,1.619620e+001
1.566339e+003,1.703901e+001
1.567303e+003,1.817164e+001
1.568267e+003,1.839311e+001
1.569232e+003,1.745684e+001
1.570196e+003,1.596554e+001
1.571160e+003,1.352591e+001
1.572124e+003,1.162709e+001
1.573089e+003,1.280161e+001
1.574053e+003,1.567305e+001
1.575017e+003,1.763114e+001
1.575981e+003,1.829433e+001
1.576946e+003,1.850615e+001
1.577910e+003,1.835600e+001
1.578874e+003,1.769788e+001
1.579838e+003,1.693578e+001
1.580802e+003,1.656203e+001
1.581767e+003,1.625222e+001
1.582731e+003,1.541094e+001
1.583695e+003,1.494524e+001
1.584659e+003,1.527279e+001
1.585624e+003,1.585245e+001
1.586588e+003,1.774140e+001
1.587552e+003,1.985176e+001
1.588516e+003,2.001080e+001
1.589481e+003,1.843000e+001
1.590445e+003,1.697943e+001
1.591409e+003,1.609834e+001
1.592373e+003,1.572143e+001
1.593338e+003,1.650172e+001
1.594302e+003,1.798176e+001
1.595266e+003,1.862204e+001
1.596230e+003,1.846359e+001
1.597194e+003,1.783160e+001
1.598159e+003,1.600389e+001
1.599123e+003,1.497652e+001
1.600087e+003,1.719094e+001
1.601051e+003,1.976989e+001
1.602016e+003,1.977832e+001
1.602980e+003,1.798093e+001
1.603944e+003,1.676768e+001
1.604908e+003,1.695052e+001
1.605873e+003,1.709696e+001
1.606837e+003,1.579170e+001
1.607801e+003,1.440292e+001
1.608765e+003,1.516322e+001
1.609729e+003,1.733054e+001
1.610694e+003,1.839632e+001
1.611658e+003,1.822990e+001
1.612622e+003,1.834141e+001
1.613586e+003,2.024127e+001
1.614551e+003,2.205291e+001
1.615515e+003,2.131167e+001
1.616479e+003,1.924942e+001
1.617443e+003,1.781695e+001
1.618408e+003,1.724237e+001
1.619372e+003,1.698825e+001
1.620336e+003,1.703160e+001
1.621300e+003,1.720577e+001
1.622265e+003,1.717435e+001
1.623229e+003,1.685695e+001
1.624193e+003,1.594809e+001
1.625157e+003,1.429383e+001
1.626121e+003,1.409671e+001
1.627086e+003,1.666005e+001
1.628050e+003,1.906290e+001
1.629014e+003,1.914755e+001
1.629978e+003,1.816497e+001
1.630943e+003,1.741624e+001
1.631907e+003,1.679176e+001
1.632871e+003,1.582240e+001
1.633835e+003,1.462877e+001
1.634800e+003,1.373607e+001
1.635764e+003,1.338655e+001
1.636728e+003,1.369149e+001
1.637692e+003,1.452911e+001
1.638656e+003,1.550843e+001
1.639621e+003,1.655224e+001
1.640585e+003,1.771540e+001
1.641549e+003,1.845250e+001
1.642513e+003,1.931659e+001
1.643478e+003,2.006554e+001
1.644442e+003,1.925037e+001
1.645406e+003,1.794482e+001
1.646370e+003,1.796969e+001
1.647335e+003,1.900362e+001
1.648299e+003,1.925047e+001
1.649263e+003,1.803062e+001
1.650227e+003,1.662922e+001
1.651192e+003,1.609156e+001
1.652156e+003,1.615843e+001
1.653120e+003,1.641429e+001
1.654084e+003,1.688839e+001
1.655048e+003,1.743905e+001
1.656013e+003,1.796210e+001
1.656977e+003,1.867537e+001
1.657941e+003,1.967352e+001
1.658905e+003,2.020717e+001
1.659870e+003,1.978308e+001
1.660834e+003,1.907448e+001
1.661798e+003,1.853444e+001
1.662762e+003,1.793588e+001
1.663727e+003,1.773971e+001
1.664691e+003,1.854222e+001
1.665655e+003,1.932127e+001
1.666619e+003,1.911073e+001
1.667583e+003,1.858332e+001
1.668548e+003,1.878722e+001
1.669512e+003,1.944066e+001
1.670476e+003,1.951247e+001
1.671440e+003,1.896139e+001
1.672405e+003,1.923524e+001
1.673369e+003,2.154933e+001
1.674333e+003,2.429827e+001
1.675297e+003,2.403993e+001
1.676262e+003,2.142156e+001
1.677226e+003,2.079896e+001
1.678190e+003,2.342065e+001
1.679154e+003,2.499319e+001
1.680119e+003,2.328877e+001
1.681083e+003,2.059787e+001
1.682047e+003,1.805374e+001
1.683011e+003,1.631762e+001
1.683975e+003,1.687463e+001
1.684940e+003,1.962509e+001
1.685904e+003,2.262362e+001
1.686868e+003,2.496545e+001
1.687832e+003,2.641480e+001
1.688797e+003,2.634678e+001
1.689761e+003,2.505859e+001
1.690725e+003,2.449222e+001
1.691689e+003,2.510179e+001
1.692654e+003,2.573739e+001
1.693618e+003,2.762980e+001
1.694582e+003,2.874698e+001
1.695546e+003,2.641069e+001
1.696510e+003,2.404844e+001
1.697475e+003,2.498334e+001
1.698439e+003,2.793499e+001
1.699403e+003,3.082924e+001
1.700367e+003,3.309017e+001
1.701332e+003,3.447313e+001
1.702296e+003,3.482695e+001
1.703260e+003,3.436812e+001
1.704224e+003,3.311483e+001
1.705189e+003,3.140924e+001
1.706153e+003,3.169838e+001
1.707117e+003,3.477691e+001
1.708081e+003,3.573798e+001
1.709046e+003,3.382328e+001
1.710010e+003,3.391888e+001
1.710974e+003,3.795591e+001
1.711938e+003,4.110712e+001
1.712902e+003,3.940258e+001
1.713867e+003,3.533503e+001
1.714831e+003,3.271741e+001
1.715795e+003,3.253305e+001
1.716759e+003,3.391396e+001
1.717724e+003,3.612133e+001
1.718688e+003,3.870360e+001
1.719652e+003,4.127291e+001
1.720616e+003,4.326766e+001
1.721581e+003,4.302111e+001
1.722545e+003,4.023994e+001
1.723509e+003,3.748082e+001
1.724473e+003,3.373534e+001
1.725438e+003,3.242759e+001
1.726402e+003,3.659367e+001
1.727366e+003,4.039389e+001
1.728330e+003,4.072100e+001
1.729294e+003,3.914793e+001
1.730259e+003,3.707738e+001
1.731223e+003,3.524754e+001
1.732187e+003,3.501710e+001
1.733151e+003,3.680677e+001
1.734116e+003,3.887131e+001
1.735080e+003,4.006564e+001
1.736044e+003,4.071570e+001
1.737008e+003,4.040063e+001
1.737973e+003,3.900681e+001
1.738937e+003,3.874717e+001
1.739901e+003,4.035658e+001
1.740865e+003,4.054568e+001
1.741829e+003,3.728809e+001
1.742794e+003,3.370784e+001
1.743758e+003,3.264374e+001
1.744722e+003,3.304213e+001
1.745686e+003,3.314075e+001
1.746651e+003,3.296346e+001
1.747615e+003,3.383101e+001
1.748579e+003,3.642588e+001
1.749543e+003,3.836789e+001
1.750508e+003,3.815081e+001
1.751472e+003,3.716625e+001
1.752436e+003,3.653890e+001
1.753400e+003,3.594118e+001
1.754365e+003,3.476629e+001
1.755329e+003,3.319158e+001
1.756293e+003,3.241916e+001
1.757257e+003,3.302793e+001
1.758221e+003,3.409279e+001
1.759186e+003,3.477847e+001
1.760150e+003,3.563868e+001
1.761114e+003,3.745827e+001
1.762078e+003,3.977699e+001
1.763043e+003,4.039182e+001
1.764007e+003,3.740340e+001
1.764971e+003,3.534647e+001
1.765935e+003,3.715945e+001
1.766900e+003,3.908605e+001
1.767864e+003,3.847399e+001
1.768828e+003,3.662722e+001
1.769792e+003,3.444899e+001
1.770756e+003,3.285760e+001
1.771721e+003,3.369518e+001
1.772685e+003,3.685952e+001
1.773649e+003,3.910636e+001
1.774613e+003,3.814576e+001
1.775578e+003,3.587862e+001
1.776542e+003,3.550879e+001
1.777506e+003,3.684840e+001
1.778470e+003,3.727643e+001
1.779435e+003,3.623006e+001
1.780399e+003,3.514624e+001
1.781363e+003,3.475588e+001
1.782327e+003,3.472615e+001
1.783292e+003,3.465336e+001
1.784256e+003,3.389835e+001
1.785220e+003,3.192517e+001
1.786184e+003,2.986011e+001
1.787148e+003,2.930709e+001
1.788113e+003,3.018185e+001
1.789077e+003,3.098615e+001
1.790041e+003,3.087934e+001
1.791005e+003,3.038860e+001
1.791970e+003,3.093365e+001
1.792934e+003,3.174667e+001
1.793898e+003,2.971001e+001
1.794862e+003,2.542348e+001
1.795827e+003,2.396861e+001
1.796791e+003,2.626431e+001
1.797755e+003,2.926012e+001
1.798719e+003,3.208854e+001
1.799683e+003,3.369568e+001
1.800648e+003,3.203497e+001
1.801612e+003,2.827327e+001
1.802576e+003,2.675941e+001
1.803540e+003,2.741930e+001
1.804505e+003,2.743517e+001
1.805469e+003,2.715291e+001
1.806433e+003,2.736257e+001
1.807397e+003,2.749053e+001
1.808362e+003,2.780011e+001
1.809326e+003,2.884965e+001
1.810290e+003,3.014861e+001
1.811254e+003,3.130215e+001
1.812219e+003,3.212572e+001
1.813183e+003,3.184623e+001
1.814147e+003,3.017309e+001
1.815111e+003,2.864140e+001
1.816075e+003,2.910095e+001
1.817040e+003,3.110058e+001
1.818004e+003,3.287447e+001
1.818968e+003,3.436183e+001
1.819932e+003,3.425474e+001
1.820897e+003,3.064738e+001
1.821861e+003,2.833332e+001
1.822825e+003,2.952338e+001
1.823789e+003,3.006706e+001
1.824754e+003,2.840264e+001
1.825718e+003,2.715182e+001
1.826682e+003,2.738578e+001
1.827646e+003,2.837594e+001
1.828610e+003,2.993594e+001
1.829575e+003,3.184719e+001
1.830539e+003,3.251469e+001
1.831503e+003,3.109872e+001
1.832467e+003,2.915031e+001
1.833432e+003,2.729245e+001
1.834396e+003,2.586243e+001
1.835360e+003,2.627642e+001
1.836324e+003,2.818123e+001
1.837289e+003,2.892934e+001
1.838253e+003,2.785582e+001
1.839217e+003,2.749651e+001
1.840181e+003,2.914425e+001
1.841146e+003,3.050027e+001
1.842110e+003,2.968048e+001
1.843074e+003,2.826624e+001
1.844038e+003,2.885149e+001
1.845002e+003,3.123749e+001
1.845967e+003,3.282390e+001
1.846931e+003,3.336511e+001
1.847895e+003,3.388835e+001
1.848859e+003,3.317535e+001
1.849824e+003,3.231402e+001
1.850788e+003,3.318666e+001
1.851752e+003,3.370545e+001
1.852716e+003,3.196622e+001
1.853681e+003,2.960178e+001
1.854645e+003,2.828918e+001
1.855609e+003,2.812164e+001
1.856573e+003,2.872372e+001
1.857537e+003,2.971006e+001
1.858502e+003,3.078358e+001
1.859466e+003,3.264748e+001
1.860430e+003,3.487676e+001
1.861394e+003,3.476337e+001
1.862359e+003,3.240263e+001
1.863323e+003,3.110889e+001
1.864287e+003,3.102782e+001
1.865251e+003,3.100787e+001
1.866216e+003,3.130956e+001
1.867180e+003,3.189058e+001
1.868144e+003,3.213703e+001
1.869108e+003,3.177206e+001
1.870073e+003,3.075368e+001
1.871037e+003,2.966375e+001
1.872001e+003,3.033483e+001
1.872965e+003,3.348843e+001
1.873929e+003,3.500759e+001
1.874894e+003,3.207477e+001
1.875858e+003,2.950233e+001
1.876822e+003,2.956712e+001
1.877786e+003,3.051635e+001
1.878751e+003,3.149503e+001
1.879715e+003,3.225279e+001
1.880679e+003,3.193558e+001
1.881643e+003,3.099998e+001
1.882608e+003,3.142227e+001
1.883572e+003,3.363226e+001
1.884536e+003,3.539548e+001
1.885500e+003,3.483595e+001
1.886464e+003,3.276324e+001
1.887429e+003,3.064541e+001
1.888393e+003,2.913003e+001
1.889357e+003,2.997631e+001
1.890321e+003,3.316058e+001
1.891286e+003,3.416019e+001
1.892250e+003,3.142606e+001
1.893214e+003,2.938618e+001
1.894178e+003,3.040157e+001
1.895143e+003,3.314941e+001
1.896107e+003,3.740168e+001
1.897071e+003,4.121856e+001
1.898035e+003,3.993543e+001
1.899000e+003,3.380456e+001
1.899964e+003,3.036988e+001
1.900928e+003,3.300586e+001
1.901892e+003,3.563906e+001
1.902856e+003,3.608363e+001
1.903821e+003,3.525455e+001
1.904785e+003,3.199632e+001
1.905749e+003,2.847144e+001
1.906713e+003,2.736035e+001
1.907678e+003,2.859928e+001
1.908642e+003,3.170756e+001
1.909606e+003,3.547163e+001
1.910570e+003,3.763918e+001
1.911535e+003,3.725995e+001
1.912499e+003,3.493006e+001
1.913463e+003,3.048669e+001
1.914427e+003,2.510011e+001
1.915391e+003,2.288274e+001
1.916356e+003,2.403028e+001
1.917320e+003,2.527068e+001
1.918284e+003,2.668380e+001
1.919248e+003,2.800025e+001
1.920213e+003,2.828043e+001
1.921177e+003,2.839670e+001
1.922141e+003,2.942248e+001
1.923105e+003,3.046551e+001
1.924070e+003,3.026639e+001
1.925034e+003,2.931784e+001
1.925998e+003,2.909595e+001
1.926962e+003,2.961030e+001
1.927927e+003,2.982622e+001
1.928891e+003,2.947570e+001
1.929855e+003,2.963657e+001
1.930819e+003,3.072093e+001
1.931783e+003,3.157059e+001
1.932748e+003,3.219298e+001
1.933712e+003,3.244131e+001
1.934676e+003,3.146905e+001
1.935640e+003,3.009703e+001
1.936605e+003,2.986707e+001
1.937569e+003,3.049872e+001
1.938533e+003,3.054269e+001
1.939497e+003,2.988271e+001
1.940462e+003,2.941839e+001
1.941426e+003,2.902685e+001
1.942390e+003,2.871487e+001
1.943354e+003,2.906558e+001
1.944318e+003,2.952222e+001
1.945283e+003,3.002235e+001
1.946247e+003,3.107001e+001
1.947211e+003,3.065791e+001
1.948175e+003,2.824584e+001
1.949140e+003,2.691370e+001
1.950104e+003,2.783361e+001
1.951068e+003,2.957148e+001
1.952032e+003,3.146667e+001
1.952997e+003,3.300918e+001
1.953961e+003,3.172389e+001
1.954925e+003,2.705814e+001
1.955889e+003,2.515237e+001
1.956854e+003,2.867108e+001
1.957818e+003,3.032544e+001
1.958782e+003,2.860099e+001
1.959746e+003,2.719157e+001
1.960710e+003,2.614479e+001
1.961675e+003,2.518983e+001
1.962639e+003,2.484344e+001
1.963603e+003,2.509473e+001
1.964567e+003,2.582677e+001
1.965532e+003,2.670374e+001
1.966496e+003,2.690862e+001
1.967460e+003,2.619543e+001
1.968424e+003,2.506060e+001
1.969389e+003,2.282509e+001
1.970353e+003,2.150898e+001
1.971317e+003,2.429733e+001
1.972281e+003,2.791793e+001
1.973245e+003,2.820318e+001
1.974210e+003,2.598546e+001
1.975174e+003,2.242263e+001
1.976138e+003,1.850649e+001
1.977102e+003,1.678332e+001
1.978067e+003,1.806793e+001
1.979031e+003,2.084476e+001
1.979995e+003,2.406060e+001
1.980959e+003,2.711099e+001
1.981924e+003,2.895737e+001
1.982888e+003,2.988815e+001
1.983852e+003,3.004697e+001
1.984816e+003,2.914339e+001
1.985781e+003,2.756401e+001
1.986745e+003,2.559086e+001
1.987709e+003,2.448352e+001
1.988673e+003,2.428320e+001
1.989637e+003,2.428200e+001
1.990602e+003,2.397255e+001
1.991566e+003,2.345024e+001
1.992530e+003,2.335033e+001
1.993494e+003,2.421249e+001
1.994459e+003,2.626858e+001
1.995423e+003,3.010730e+001
1.996387e+003,3.086494e+001
1.997351e+003,2.488683e+001
1.998316e+003,2.064917e+001
1.999280e+003,2.062070e+001
2.000244e+003,2.267004e+001
2.001208e+003,2.767783e+001
2.002172e+003,3.229578e+001
2.003137e+003,3.227386e+001
2.004101e+003,2.936323e+001
2.005065e+003,2.767169e+001
2.006029e+003,2.803366e+001
2.006994e+003,2.905453e+001
2.007958e+003,2.992406e+001
2.008922e+003,3.027099e+001
2.009886e+003,3.064962e+001
2.010851e+003,3.101638e+001
2.011815e+003,3.025360e+001
2.012779e+003,2.915119e+001
2.013743e+003,2.953514e+001
2.014708e+003,3.059436e+001
2.015672e+003,3.005198e+001
2.016636e+003,2.796526e+001
2.017600e+003,2.615525e+001
2.018564e+003,2.537017e+001
2.019529e+003,2.553618e+001
2.020493e+003,2.694629e+001
2.021457e+003,2.910223e+001
2.022421e+003,3.055495e+001
2.023386e+003,3.103742e+001
2.024350e+003,3.029472e+001
2.025314e+003,2.845950e+001
2.026278e+003,2.781763e+001
2.027243e+003,2.889240e+001
2.028207e+003,2.986485e+001
2.029171e+003,2.993890e+001
2.030135e+003,2.971798e+001
2.031099e+003,2.945127e+001
2.032064e+003,2.948592e+001
2.033028e+003,3.043569e+001
2.033992e+003,3.159705e+001
2.034956e+003,3.193172e+001
2.035921e+003,3.285059e+001
2.036885e+003,3.213950e+001
2.037849e+003,2.790382e+001
2.038813e+003,2.577776e+001
2.039778e+003,2.484708e+001
2.040742e+003,2.475355e+001
2.041706e+003,2.787177e+001
2.042670e+003,3.137955e+001
2.043635e+003,3.316849e+001
2.044599e+003,3.345636e+001
2.045563e+003,3.224683e+001
2.046527e+003,3.007206e+001
2.047491e+003,2.929948e+001
2.048456e+003,3.089621e+001
2.049420e+003,3.250138e+001
2.050384e+003,3.288876e+001
2.051348e+003,3.211124e+001
2.052313e+003,2.992886e+001
2.053277e+003,2.792057e+001
2.054241e+003,2.725577e+001
2.055205e+003,2.787517e+001
2.056170e+003,2.961217e+001
2.057134e+003,3.118996e+001
2.058098e+003,3.089185e+001
2.059062e+003,2.907822e+001
2.060027e+003,2.795468e+001
2.060991e+003,2.845148e+001
2.061955e+003,2.961610e+001
2.062919e+003,3.106882e+001
2.063884e+003,3.192199e+001
2.064848e+003,3.149856e+001
2.065812e+003,3.049961e+001
2.066776e+003,2.870650e+001
2.067740e+003,2.639035e+001
2.068705e+003,2.525490e+001
2.069669e+003,2.561594e+001
2.070633e+003,2.670065e+001
2.071597e+003,2.793723e+001
2.072562e+003,2.863412e+001
2.073526e+003,2.872094e+001
2.074490e+003,2.834093e+001
2.075454e+003,2.557008e+001
2.076418e+003,2.136750e+001
2.077383e+003,2.235283e+001
2.078347e+003,2.721409e+001
2.079311e+003,2.806721e+001
2.080275e+003,2.542208e+001
2.081240e+003,2.394952e+001
2.082204e+003,2.419721e+001
2.083168e+003,2.577477e+001
2.084132e+003,2.865491e+001
2.085096e+003,3.010538e+001
2.086061e+003,2.714709e+001
2.087025e+003,2.225218e+001
2.087989e+003,2.179169e+001
2.088953e+003,2.591991e+001
2.089918e+003,2.716566e+001
2.090882e+003,2.443256e+001
2.091846e+003,2.360568e+001
2.092810e+003,2.643600e+001
2.093775e+003,2.775977e+001
2.094739e+003,2.508850e+001
2.095703e+003,2.140829e+001
2.096667e+003,1.831424e+001
2.097632e+003,1.607801e+001
2.098596e+003,1.551338e+001
2.099560e+003,1.661901e+001
2.100524e+003,1.755256e+001
2.101489e+003,1.742204e+001
2.102453e+003,1.785175e+001
2.103417e+003,2.024895e+001
2.104381e+003,2.173176e+001
2.105345e+003,2.222028e+001
2.106310e+003,2.198341e+001
2.107274e+003,2.038404e+001
2.108238e+003,1.896964e+001
2.109202e+003,1.774661e+001
2.110167e+003,1.753606e+001
2.111131e+003,2.069292e+001
2.112095e+003,2.559035e+001
2.113059e+003,2.688326e+001
2.114023e+003,2.467511e+001
2.114988e+003,2.291235e+001
2.115952e+003,2.010356e+001
2.116916e+003,1.793120e+001
2.117880e+003,1.795773e+001
2.118845e+003,1.807805e+001
2.119809e+003,1.804459e+001
2.120773e+003,1.856938e+001
2.121737e+003,1.949228e+001
2.122702e+003,2.023278e+001
2.123666e+003,2.055644e+001
2.124630e+003,2.021394e+001
2.125594e+003,1.867462e+001
2.126559e+003,1.592129e+001
2.127523e+003,1.404317e+001
2.128487e+003,1.418102e+001
2.129451e+003,1.583886e+001
2.130416e+003,1.982510e+001
2.131380e+003,2.312015e+001
2.132344e+003,2.255402e+001
2.133308e+003,2.094203e+001
2.134272e+003,2.195275e+001
2.135237e+003,2.391681e+001
2.136201e+003,2.352000e+001
2.137165e+003,2.090717e+001
2.138129e+003,1.792015e+001
2.139094e+003,1.542579e+001
2.140058e+003,1.556493e+001
2.141022e+003,2.089125e+001
2.141986e+003,2.520107e+001
2.142950e+003,2.223362e+001
2.143915e+003,1.742777e+001
2.144879e+003,1.631213e+001
2.145843e+003,1.699420e+001
2.146807e+003,1.689572e+001
2.147772e+003,1.643174e+001
2.148736e+003,1.660036e+001
2.149700e+003,1.712025e+001
2.150664e+003,1.718761e+001
2.151629e+003,1.660504e+001
2.152593e+003,1.575175e+001
2.153557e+003,1.520818e+001
2.154521e+003,1.467778e+001
2.155486e+003,1.300671e+001
2.156450e+003,1.073729e+001
2.157414e+003,8.551582e+000
2.158378e+003,7.243103e+000
2.159343e+003,8.279320e+000
2.160307e+003,1.130312e+001
2.161271e+003,1.585374e+001
2.162235e+003,2.069011e+001
2.163199e+003,2.194630e+001
2.164164e+003,1.822701e+001
2.165128e+003,1.354851e+001
2.166092e+003,1.110857e+001
2.167056e+003,1.059641e+001
2.168021e+003,1.182493e+001
2.168985e+003,1.348855e+001
2.169949e+003,1.420590e+001
2.170913e+003,1.424025e+001
2.171877e+003,1.380295e+001
2.172842e+003,1.324440e+001
2.173806e+003,1.249717e+001
2.174770e+003,1.158303e+001
2.175734e+003,1.186004e+001
2.176699e+003,1.370554e+001
2.177663e+003,1.421015e+001
2.178627e+003,1.078584e+001
2.179591e+003,6.776337e+000
2.180556e+003,7.209145e+000
2.181520e+003,9.813667e+000
2.182484e+003,1.019856e+001
2.183448e+003,9.374313e+000
2.184413e+003,9.380180e+000
2.185377e+003,1.013517e+001
2.186341e+003,1.079320e+001
2.187305e+003,1.100070e+001
2.188270e+003,1.067136e+001
2.189234e+003,1.001334e+001
2.190198e+003,9.395912e+000
2.191162e+003,8.661957e+000
2.192126e+003,7.154961e+000
2.193091e+003,4.081711e+000
2.194055e+003,1.031746e+000
2.195019e+003,2.080627e+000
2.195983e+003,5.752106e+000
2.196948e+003,6.403419e+000
2.197912e+003,4.660278e+000
2.198876e+003,5.168221e+000
2.199840e+003,8.136147e+000
2.200804e+003,1.040611e+001
2.201769e+003,1.069637e+001
2.202733e+003,9.897919e+000
2.203697e+003,8.919266e+000
2.204661e+003,8.180626e+000
2.205626e+003,8.099991e+000
2.206590e+003,8.269371e+000
2.207554e+003,7.106644e+000
2.208518e+003,5.003571e+000
2.209483e+003,4.329857e+000
2.210447e+003,4.982109e+000
2.211411e+003,5.295937e+000
2.212375e+003,5.093330e+000
2.213340e+003,5.214844e+000
2.214304e+003,5.909889e+000
2.215268e+003,6.304184e+000
2.216232e+003,5.574776e+000
2.217197e+003,4.546951e+000
2.218161e+003,4.764397e+000
2.219125e+003,5.409668e+000
2.220089e+003,4.426369e+000
2.221053e+003,3.411308e+000
2.222018e+003,5.569252e+000
2.222982e+003,8.863998e+000
2.223946e+003,9.282570e+000
2.224910e+003,7.492851e+000
2.225875e+003,5.848190e+000
2.226839e+003,4.980408e+000
2.227803e+003,5.333008e+000
2.228767e+003,6.888695e+000
2.229731e+003,7.677200e+000
2.230696e+003,5.990105e+000
2.231660e+003,3.685349e+000
2.232624e+003,3.742271e+000
2.233588e+003,5.160980e+000
2.234553e+003,5.437988e+000
2.235517e+003,5.062996e+000
2.236481e+003,4.770485e+000
2.237445e+003,4.650627e+000
2.238410e+003,6.186066e+000
2.239374e+003,9.195847e+000
2.240338e+003,1.093766e+001
2.241302e+003,1.030077e+001
2.242267e+003,8.174538e+000
2.243231e+003,4.904785e+000
2.244195e+003,2.438896e+000
2.245159e+003,2.891548e+000
2.246124e+003,4.566536e+000
2.247088e+003,6.071510e+000
2.248052e+003,7.115936e+000
2.249016e+003,7.759346e+000
2.249980e+003,8.051094e+000
2.250945e+003,7.477280e+000
2.251909e+003,6.621208e+000
2.252873e+003,6.785973e+000
2.253837e+003,7.798195e+000
2.254802e+003,8.218147e+000
2.255766e+003,7.644196e+000
2.256730e+003,7.000984e+000
2.257694e+003,6.534752e+000
2.258658e+003,6.146866e+000
2.259623e+003,6.325348e+000
2.260587e+003,6.046837e+000
2.261551e+003,3.591965e+000
2.262515e+003,8.949966e-001
2.263480e+003,0.000000e+000
2.264444e+003,1.243225e+000
2.265408e+003,5.486542e+000
2.266372e+003,1.110098e+001
2.267337e+003,1.360108e+001
2.268301e+003,1.188081e+001
2.269265e+003,8.877548e+000
2.270229e+003,5.401482e+000
2.271194e+003,4.356659e+000
2.272158e+003,6.489975e+000
2.273122e+003,8.894981e+000
2.274086e+003,1.143992e+001
2.275051e+003,1.309261e+001
2.276015e+003,1.349424e+001
2.276979e+003,1.297379e+001
2.277943e+003,1.018597e+001
2.278907e+003,6.592697e+000
2.279872e+003,6.443062e+000
2.280836e+003,9.691048e+000
2.281800e+003,1.167923e+001
2.282764e+003,1.213937e+001
2.283729e+003,1.150886e+001
2.284693e+003,8.392395e+000
2.285657e+003,7.331039e+000
2.286621e+003,1.051091e+001
2.287585e+003,1.240652e+001
2.288550e+003,9.921242e+000
2.289514e+003,7.027603e+000
2.290478e+003,6.367828e+000
2.291442e+003,7.806099e+000
2.292407e+003,1.178622e+001
2.293371e+003,1.713246e+001
2.294335e+003,1.881693e+001
2.295299e+003,1.610458e+001
2.296264e+003,1.333801e+001
2.297228e+003,9.802597e+000
2.298192e+003,8.799202e+000
2.299156e+003,1.205012e+001
2.300121e+003,1.573545e+001
2.301085e+003,1.864225e+001
2.302049e+003,1.974269e+001
2.303013e+003,1.836501e+001
2.303978e+003,1.638416e+001
2.304942e+003,1.529272e+001
2.305906e+003,1.530962e+001
2.306870e+003,1.768353e+001
2.307834e+003,2.190061e+001
2.308799e+003,2.266718e+001
2.309763e+003,1.995133e+001
2.310727e+003,1.990106e+001
2.311691e+003,2.254778e+001
2.312656e+003,2.247669e+001
2.313620e+003,1.863447e+001
2.314584e+003,1.743558e+001
2.315548e+003,2.139828e+001
2.316512e+003,2.477435e+001
2.317477e+003,2.388726e+001
2.318441e+003,2.284560e+001
2.319405e+003,2.634372e+001
2.320369e+003,3.129041e+001
2.321334e+003,2.991969e+001
2.322298e+003,2.458141e+001
2.323262e+003,2.514581e+001
2.324226e+003,3.100743e+001
2.325191e+003,3.893127e+001
2.326155e+003,4.673473e+001
2.327119e+003,4.938776e+001
2.328083e+003,4.663536e+001
2.329048e+003,4.290858e+001
2.330012e+003,4.058716e+001
2.330976e+003,3.924715e+001
2.331940e+003,3.777554e+001
2.332905e+003,3.670341e+001
2.333869e+003,3.802081e+001
2.334833e+003,4.020522e+001
2.335797e+003,4.118697e+001
2.336761e+003,4.259924e+001
2.337726e+003,4.660925e+001
2.338690e+003,5.053172e+001
2.339654e+003,5.075688e+001
2.340618e+003,4.926193e+001
2.341583e+003,5.042185e+001
2.342547e+003,5.420187e+001
2.343511e+003,5.660332e+001
2.344475e+003,5.618465e+001
2.345439e+003,5.620702e+001
2.346404e+003,5.774314e+001
2.347368e+003,5.967389e+001
2.348332e+003,6.294970e+001
2.349296e+003,6.616409e+001
2.350261e+003,6.879226e+001
2.351225e+003,7.130321e+001
2.352189e+003,7.300213e+001
2.353153e+003,7.441060e+001
2.354118e+003,7.641439e+001
2.355082e+003,7.857378e+001
2.356046e+003,8.041041e+001
2.357010e+003,8.249212e+001
2.357975e+003,8.506853e+001
2.358939e+003,8.838261e+001
2.359903e+003,9.019872e+001
2.360867e+003,8.835356e+001
2.361832e+003,8.859540e+001
2.362796e+003,9.351811e+001
2.363760e+003,9.774306e+001
2.364724e+003,9.971735e+001
2.365688e+003,1.016294e+002
2.366653e+003,1.037275e+002
2.367617e+003,1.056987e+002
2.368581e+003,1.080194e+002
2.369545e+003,1.109024e+002
2.370510e+003,1.148244e+002
2.371474e+003,1.194026e+002
2.372438e+003,1.214666e+002
2.373402e+003,1.215127e+002
2.374366e+003,1.228478e+002
2.375331e+003,1.253817e+002
2.376295e+003,1.273652e+002
2.377259e+003,1.288298e+002
2.378223e+003,1.315608e+002
2.379188e+003,1.356181e+002
2.380152e+003,1.385435e+002
2.381116e+003,1.392301e+002
2.382080e+003,1.393876e+002
2.383045e+003,1.400217e+002
2.384009e+003,1.407614e+002
2.384973e+003,1.410818e+002
2.385937e+003,1.420335e+002
2.386902e+003,1.451053e+002
2.387866e+003,1.497166e+002
2.388830e+003,1.563647e+002
2.389794e+003,1.614063e+002
2.390759e+003,1.589400e+002
2.391723e+003,1.518678e+002
2.392687e+003,1.482984e+002
2.393651e+003,1.494738e+002
2.394615e+003,1.506530e+002
2.395580e+003,1.505204e+002
2.396544e+003,1.500207e+002
2.397508e+003,1.480241e+002
2.398472e+003,1.474816e+002
2.399437e+003,1.503794e+002
2.400401e+003,1.533497e+002
2.401365e+003,1.552679e+002
2.402329e+003,1.563839e+002
2.403293e+003,1.561487e+002
2.404258e+003,1.564362e+002
2.405222e+003,1.600471e+002
2.406186e+003,1.652386e+002
2.407150e+003,1.673499e+002
2.408115e+003,1.667361e+002
2.409079e+003,1.666435e+002
2.410043e+003,1.670015e+002
2.411007e+003,1.677231e+002
2.411972e+003,1.689076e+002
2.412936e+003,1.701411e+002
2.413900e+003,1.710634e+002
2.414864e+003,1.722821e+002
2.415829e+003,1.742671e+002
2.416793e+003,1.757461e+002
2.417757e+003,1.758365e+002
2.418721e+003,1.759697e+002
2.419686e+003,1.776684e+002
2.420650e+003,1.794247e+002
2.421614e+003,1.790789e+002
2.422578e+003,1.782265e+002
2.423542e+003,1.786681e+002
2.424507e+003,1.790510e+002
2.425471e+003,1.781185e+002
2.426435e+003,1.770658e+002
2.427399e+003,1.764306e+002
2.428364e+003,1.759731e+002
2.429328e+003,1.770231e+002
2.430292e+003,1.794288e+002
2.431256e+003,1.790993e+002
2.432220e+003,1.746895e+002
2.433185e+003,1.723814e+002
2.434149e+003,1.739760e+002
2.435113e+003,1.745467e+002
2.436077e+003,1.737304e+002
2.437042e+003,1.729066e+002
2.438006e+003,1.722505e+002
2.438970e+003,1.719445e+002
2.439934e+003,1.724404e+002
2.440899e+003,1.722074e+002
2.441863e+003,1.701360e+002
2.442827e+003,1.672551e+002
2.443791e+003,1.642223e+002
2.444756e+003,1.613601e+002
2.445720e+003,1.615662e+002
2.446684e+003,1.636489e+002
2.447648e+003,1.604345e+002
2.448613e+003,1.539748e+002
2.449577e+003,1.520219e+002
2.450541e+003,1.538774e+002
2.451505e+003,1.549761e+002
2.452469e+003,1.548235e+002
2.453434e+003,1.549613e+002
2.454398e+003,1.551289e+002
2.455362e+003,1.540933e+002
2.456326e+003,1.525340e+002
2.457291e+003,1.510287e+002
2.458255e+003,1.479354e+002
2.459219e+003,1.456912e+002
2.460183e+003,1.453300e+002
2.461147e+003,1.449230e+002
2.462112e+003,1.454593e+002
2.463076e+003,1.458618e+002
2.464040e+003,1.441214e+002
2.465004e+003,1.408540e+002
2.465969e+003,1.372232e+002
2.466933e+003,1.345638e+002
2.467897e+003,1.342497e+002
2.468861e+003,1.352056e+002
2.469826e+003,1.344390e+002
2.470790e+003,1.320442e+002
2.471754e+003,1.289352e+002
2.472718e+003,1.252849e+002
2.473683e+003,1.251180e+002
2.474647e+003,1.279385e+002
2.475611e+003,1.290311e+002
2.476575e+003,1.279636e+002
2.477540e+003,1.267313e+002
2.478504e+003,1.259286e+002
2.479468e+003,1.254628e+002
2.480432e+003,1.254671e+002
2.481396e+003,1.250600e+002
2.482361e+003,1.234230e+002
2.483325e+003,1.217809e+002
2.484289e+003,1.201047e+002
2.485253e+003,1.185330e+002
2.486218e+003,1.180296e+002
2.487182e+003,1.175981e+002
2.488146e+003,1.161274e+002
2.489110e+003,1.147894e+002
2.490074e+003,1.157262e+002
2.491039e+003,1.181221e+002
2.492003e+003,1.185667e+002
2.492967e+003,1.159748e+002
2.493931e+003,1.133469e+002
2.494896e+003,1.114644e+002
2.495860e+003,1.105749e+002
2.496824e+003,1.111753e+002
2.497788e+003,1.115468e+002
2.498753e+003,1.109719e+002
2.499717e+003,1.108326e+002
2.500681e+003,1.117892e+002
2.501645e+003,1.124832e+002
2.502610e+003,1.120175e+002
2.503574e+003,1.113789e+002
2.504538e+003,1.117749e+002
2.505502e+003,1.124098e+002
2.506467e+003,1.112102e+002
2.507431e+003,1.094469e+002
2.508395e+003,1.098308e+002
2.509359e+003,1.114757e+002
2.510323e+003,1.136326e+002
2.511288e+003,1.155110e+002
2.512252e+003,1.165018e+002
2.513216e+003,1.164200e+002
2.514180e+003,1.139772e+002
2.515145e+003,1.107909e+002
2.516109e+003,1.114062e+002
2.517073e+003,1.158707e+002
2.518037e+003,1.182254e+002
2.519001e+003,1.172810e+002
2.519966e+003,1.164596e+002
2.520930e+003,1.158028e+002
2.521894e+003,1.153442e+002
2.522858e+003,1.154648e+002
2.523823e+003,1.137959e+002
2.524787e+003,1.092732e+002
2.525751e+003,1.073344e+002
2.526715e+003,1.105410e+002
2.527680e+003,1.138039e+002
2.528644e+003,1.134125e+002
2.529608e+003,1.115187e+002
2.530572e+003,1.095309e+002
2.531537e+003,1.079288e+002
2.532501e+003,1.082731e+002
2.533465e+003,1.099352e+002
2.534429e+003,1.138697e+002
2.535394e+003,1.173199e+002
2.536358e+003,1.153114e+002
2.537322e+003,1.106309e+002
2.538286e+003,1.076769e+002
2.539250e+003,1.065553e+002
2.540215e+003,1.059129e+002
2.541179e+003,1.055876e+002
2.542143e+003,1.069921e+002
2.543107e+003,1.117462e+002
2.544072e+003,1.127903e+002
2.545036e+003,1.076711e+002
2.546000e+003,1.052369e+002
2.546964e+003,1.064066e+002
2.547928e+003,1.061634e+002
2.548893e+003,1.034138e+002
2.549857e+003,1.032016e+002
2.550821e+003,1.074032e+002
2.551785e+003,1.107057e+002
2.552750e+003,1.098200e+002
2.553714e+003,1.074992e+002
2.554678e+003,1.060850e+002
2.555642e+003,1.056485e+002
2.556607e+003,1.058786e+002
2.557571e+003,1.060677e+002
2.558535e+003,1.069827e+002
2.559499e+003,1.066874e+002
2.560464e+003,1.023785e+002
2.561428e+003,9.830579e+001
2.562392e+003,9.910183e+001
2.563356e+003,1.019342e+002
2.564321e+003,1.022778e+002
2.565285e+003,1.008462e+002
2.566249e+003,9.910963e+001
2.567213e+003,9.663074e+001
2.568177e+003,9.567049e+001
2.569142e+003,9.643909e+001
2.570106e+003,9.641801e+001
2.571070e+003,9.595083e+001
2.572034e+003,9.535302e+001
2.572999e+003,9.483733e+001
2.573963e+003,9.429769e+001
2.574927e+003,9.354842e+001
2.575891e+003,9.467229e+001
2.576855e+003,9.797253e+001
2.577820e+003,9.819827e+001
2.578784e+003,9.280289e+001
2.579748e+003,8.703261e+001
2.580712e+003,8.207553e+001
2.581677e+003,7.949366e+001
2.582641e+003,7.995400e+001
2.583605e+003,8.114442e+001
2.584569e+003,8.364022e+001
2.585534e+003,8.535964e+001
2.586498e+003,8.503056e+001
2.587462e+003,8.363566e+001
2.588426e+003,8.180006e+001
2.589391e+003,7.949053e+001
2.590355e+003,7.689401e+001
2.591319e+003,7.456123e+001
2.592283e+003,7.412994e+001
2.593248e+003,7.500890e+001
2.594212e+003,7.568558e+001
2.595176e+003,7.595525e+001
2.596140e+003,7.526320e+001
2.597104e+003,7.397385e+001
2.598069e+003,7.239807e+001
2.599033e+003,7.109633e+001
2.599997e+003,7.239185e+001
2.600961e+003,7.605293e+001
2.601926e+003,7.596034e+001
2.602890e+003,6.951505e+001
2.603854e+003,6.567129e+001
2.604818e+003,6.542503e+001
2.605782e+003,6.583659e+001
2.606747e+003,6.756782e+001
2.607711e+003,6.912213e+001
2.608675e+003,7.027042e+001
2.609639e+003,6.949692e+001
2.610604e+003,6.639576e+001
2.611568e+003,6.427650e+001
2.612532e+003,6.497850e+001
2.613496e+003,6.644989e+001
2.614461e+003,6.683079e+001
2.615425e+003,6.637414e+001
2.616389e+003,6.543686e+001
2.617353e+003,6.421001e+001
2.618318e+003,6.288425e+001
2.619282e+003,6.179247e+001
2.620246e+003,6.195385e+001
2.621210e+003,6.288764e+001
2.622175e+003,6.296057e+001
2.623139e+003,6.209975e+001
2.624103e+003,6.021474e+001
2.625067e+003,5.798339e+001
2.626031e+003,5.863921e+001
2.626996e+003,6.246896e+001
2.627960e+003,6.403194e+001
2.628924e+003,6.307294e+001
2.629888e+003,6.360584e+001
2.630853e+003,6.481584e+001
2.631817e+003,6.425824e+001
2.632781e+003,6.375919e+001
2.633745e+003,6.590039e+001
2.634709e+003,6.853043e+001
2.635674e+003,6.703461e+001
2.636638e+003,6.148259e+001
2.637602e+003,5.787171e+001
2.638566e+003,5.926520e+001
2.639531e+003,6.095723e+001
2.640495e+003,6.174630e+001
2.641459e+003,5.962346e+001
2.642423e+003,5.306590e+001
2.643388e+003,5.089272e+001
2.644352e+003,5.520216e+001
2.645316e+003,5.726086e+001
2.646280e+003,5.387152e+001
2.647245e+003,5.044151e+001
2.648209e+003,5.090037e+001
2.649173e+003,5.331540e+001
2.650137e+003,5.514360e+001
2.651102e+003,5.680123e+001
2.652066e+003,5.865037e+001
2.653030e+003,5.867074e+001
2.653994e+003,5.625237e+001
2.654958e+003,5.394711e+001
2.655923e+003,5.356469e+001
2.656887e+003,5.365612e+001
2.657851e+003,5.159090e+001
2.658815e+003,4.902077e+001
2.659780e+003,4.830326e+001
2.660744e+003,4.913298e+001
2.661708e+003,5.088577e+001
2.662672e+003,5.321969e+001
2.663636e+003,5.475891e+001
2.664601e+003,5.523841e+001
2.665565e+003,5.321910e+001
2.666529e+003,5.013641e+001
2.667493e+003,4.852562e+001
2.668458e+003,4.861365e+001
2.669422e+003,5.081456e+001
2.670386e+003,5.317536e+001
2.671350e+003,5.301610e+001
2.672315e+003,5.117884e+001
2.673279e+003,4.910400e+001
2.674243e+003,4.586813e+001
2.675207e+003,4.371390e+001
2.676172e+003,4.318267e+001
2.677136e+003,4.189495e+001
2.678100e+003,4.010049e+001
2.679064e+003,4.109946e+001
2.680029e+003,4.413624e+001
2.680993e+003,4.440736e+001
2.681957e+003,4.175048e+001
2.682921e+003,3.949481e+001
2.683885e+003,3.846678e+001
2.684850e+003,3.859032e+001
2.685814e+003,4.153233e+001
2.686778e+003,4.364190e+001
2.687742e+003,4.074144e+001
2.688707e+003,3.942395e+001
2.689671e+003,4.148034e+001
2.690635e+003,4.265145e+001
2.691599e+003,4.284449e+001
2.692563e+003,4.251163e+001
2.693528e+003,4.189311e+001
2.694492e+003,4.054762e+001
2.695456e+003,3.799116e+001
2.696420e+003,3.570897e+001
2.697385e+003,3.530590e+001
2.698349e+003,3.580368e+001
2.699313e+003,3.701725e+001
2.700277e+003,3.797774e+001
2.701242e+003,3.625289e+001
2.702206e+003,3.394770e+001
2.703170e+003,3.363869e+001
2.704134e+003,3.377864e+001
2.705099e+003,3.305539e+001
2.706063e+003,3.259749e+001
2.707027e+003,3.334673e+001
2.707991e+003,3.433689e+001
2.708956e+003,3.365198e+001
2.709920e+003,3.117724e+001
2.710884e+003,2.771274e+001
2.711848e+003,2.449991e+001
2.712813e+003,2.322821e+001
2.713777e+003,2.439631e+001
2.714741e+003,2.954435e+001
2.715705e+003,3.430980e+001
2.716669e+003,3.315934e+001
2.717634e+003,2.890678e+001
2.718598e+003,2.748135e+001
2.719562e+003,2.941892e+001
2.720526e+003,2.977529e+001
2.721490e+003,2.655606e+001
2.722455e+003,2.517508e+001
2.723419e+003,2.689172e+001
2.724383e+003,2.764933e+001
2.725347e+003,2.747285e+001
2.726312e+003,2.635003e+001
2.727276e+003,2.416495e+001
2.728240e+003,2.405245e+001
2.729204e+003,2.659106e+001
2.730169e+003,2.672913e+001
2.731133e+003,2.249082e+001
2.732097e+003,2.057988e+001
2.733061e+003,2.432771e+001
2.734026e+003,2.493747e+001
2.734990e+003,2.277547e+001
2.735954e+003,2.099941e+001
2.736918e+003,1.789582e+001
2.737883e+003,1.837960e+001
2.738847e+003,2.275544e+001
2.739811e+003,2.528518e+001
2.740775e+003,2.456161e+001
2.741740e+003,2.264513e+001
2.742704e+003,2.119187e+001
2.743668e+003,2.063862e+001
2.744632e+003,2.037573e+001
2.745596e+003,2.021573e+001
2.746561e+003,1.823904e+001
2.747525e+003,1.681385e+001
2.748489e+003,1.953316e+001
2.749453e+003,2.139354e+001
2.750417e+003,2.121692e+001
2.751382e+003,2.141196e+001
2.752346e+003,2.243682e+001
2.753310e+003,2.311386e+001
2.754274e+003,2.265721e+001
2.755239e+003,2.154831e+001
2.756203e+003,2.038652e+001
2.757167e+003,1.953624e+001
2.758131e+003,1.936279e+001
2.759096e+003,1.909106e+001
2.760060e+003,1.808871e+001
2.761024e+003,1.768141e+001
2.761988e+003,1.917022e+001
2.762953e+003,2.058110e+001
2.763917e+003,2.077443e+001
2.764881e+003,2.015327e+001
2.765845e+003,1.900891e+001
2.766810e+003,1.756433e+001
2.767774e+003,1.648569e+001
2.768738e+003,1.616802e+001
2.769702e+003,1.708469e+001
2.770667e+003,1.834789e+001
2.771631e+003,1.679258e+001
2.772595e+003,1.489738e+001
2.773559e+003,1.870127e+001
2.774523e+003,2.329955e+001
2.775488e+003,2.269530e+001
2.776452e+003,2.081989e+001
2.777416e+003,1.997022e+001
2.778380e+003,1.750358e+001
2.779344e+003,1.490994e+001
2.780309e+003,1.419019e+001
2.781273e+003,1.300116e+001
2.782237e+003,1.325865e+001
2.783201e+003,1.680284e+001
2.784166e+003,1.852450e+001
2.785130e+003,1.470926e+001
2.786094e+003,9.871166e+000
2.787058e+003,1.048227e+001
2.788023e+003,1.425190e+001
2.788987e+003,1.369131e+001
2.789951e+003,1.011371e+001
2.790915e+003,1.034103e+001
2.791880e+003,1.376888e+001
2.792844e+003,1.560490e+001
2.793808e+003,1.653306e+001
2.794772e+003,1.707360e+001
2.795737e+003,1.630676e+001
2.796701e+003,1.507395e+001
2.797665e+003,1.429947e+001
2.798629e+003,1.416828e+001
2.799594e+003,1.485895e+001
2.800558e+003,1.526189e+001
2.801522e+003,1.515392e+001
2.802486e+003,1.642032e+001
2.803450e+003,1.804900e+001
2.804415e+003,1.850148e+001
2.805379e+003,1.812083e+001
2.806343e+003,1.750734e+001
2.807307e+003,1.832853e+001
2.808271e+003,1.738699e+001
2.809236e+003,1.375280e+001
2.810200e+003,1.277727e+001
2.811164e+003,1.545197e+001
2.812128e+003,1.766462e+001
2.813093e+003,1.895779e+001
2.814057e+003,2.041000e+001
2.815021e+003,1.974451e+001
2.815985e+003,1.566053e+001
2.816950e+003,1.078440e+001
2.817914e+003,1.148954e+001
2.818878e+003,1.572042e+001
2.819842e+003,1.790207e+001
2.820807e+003,1.815157e+001
2.821771e+003,1.708755e+001
2.822735e+003,1.469831e+001
2.823699e+003,1.409714e+001
2.824664e+003,1.692219e+001
2.825628e+003,1.644486e+001
2.826592e+003,1.119613e+001
2.827556e+003,1.224645e+001
2.828521e+003,1.867125e+001
2.829485e+003,1.864106e+001
2.830449e+003,1.350978e+001
2.831413e+003,1.164127e+001
2.832377e+003,1.294120e+001
2.833342e+003,1.335830e+001
2.834306e+003,1.270723e+001
2.835270e+003,1.343237e+001
2.836234e+003,1.595422e+001
2.837198e+003,1.689806e+001
2.838163e+003,1.542571e+001
2.839127e+003,1.592613e+001
2.840091e+003,1.868811e+001
2.841055e+003,1.775926e+001
2.842020e+003,1.307538e+001
2.842984e+003,1.212120e+001
2.843948e+003,1.514698e+001
2.844912e+003,1.560791e+001
2.845877e+003,1.277487e+001
2.846841e+003,1.237088e+001
2.847805e+003,1.611346e+001
2.848769e+003,1.780573e+001
2.849734e+003,1.578066e+001
2.850698e+003,1.371201e+001
2.851662e+003,1.148439e+001
2.852626e+003,1.061598e+001
2.853591e+003,1.148535e+001
2.854555e+003,1.277496e+001
2.855519e+003,1.375975e+001
2.856483e+003,1.418420e+001
2.857448e+003,1.391356e+001
2.858412e+003,1.309797e+001
2.859376e+003,1.235411e+001
2.860340e+003,1.154701e+001
2.861304e+003,9.492310e+000
2.862269e+003,1.002499e+001
2.863233e+003,1.274623e+001
2.864197e+003,1.471074e+001
2.865161e+003,1.639202e+001
2.866125e+003,1.628590e+001
2.867090e+003,1.407284e+001
2.868054e+003,1.212597e+001
2.869018e+003,1.102258e+001
2.869982e+003,9.730087e+000
2.870947e+003,8.902512e+000
2.871911e+003,9.988129e+000
2.872875e+003,1.260081e+001
2.873839e+003,1.214901e+001
2.874804e+003,8.803871e+000
2.875768e+003,7.674648e+000
2.876732e+003,9.041985e+000
2.877696e+003,1.051450e+001
2.878661e+003,1.136176e+001
2.879625e+003,1.103674e+001
2.880589e+003,9.730247e+000
2.881553e+003,9.947647e+000
2.882518e+003,1.284996e+001
2.883482e+003,1.393279e+001
2.884446e+003,1.237093e+001
2.885410e+003,1.287387e+001
2.886375e+003,1.526202e+001
2.887339e+003,1.536451e+001
2.888303e+003,1.375799e+001
2.889267e+003,1.500116e+001
2.890231e+003,1.880473e+001
2.891196e+003,2.103625e+001
2.892160e+003,2.104033e+001
2.893124e+003,2.155230e+001
2.894088e+003,2.299444e+001
2.895052e+003,2.476748e+001
2.896017e+003,2.703168e+001
2.896981e+003,2.671982e+001
2.897945e+003,2.436337e+001
2.898909e+003,2.425335e+001
2.899874e+003,2.591381e+001
2.900838e+003,2.598098e+001
2.901802e+003,2.483512e+001
2.902766e+003,2.562854e+001
2.903731e+003,2.868196e+001
2.904695e+003,3.194273e+001
2.905659e+003,3.535791e+001
2.906623e+003,3.583507e+001
2.907588e+003,3.361175e+001
2.908552e+003,3.247874e+001
2.909516e+003,3.250146e+001
2.910480e+003,3.367564e+001
2.911445e+003,3.550604e+001
2.912409e+003,3.682775e+001
2.913373e+003,3.793044e+001
2.914337e+003,4.049330e+001
2.915302e+003,4.408982e+001
2.916266e+003,4.577921e+001
2.917230e+003,4.579707e+001
2.918194e+003,4.733759e+001
2.919158e+003,4.985466e+001
2.920123e+003,5.079247e+001
2.921087e+003,5.082546e+001
2.922051e+003,5.164737e+001
2.923015e+003,5.284303e+001
2.923979e+003,5.319357e+001
2.924944e+003,5.307179e+001
2.925908e+003,5.338137e+001
2.926872e+003,5.442372e+001
2.927836e+003,5.751449e+001
2.928801e+003,6.175564e+001
2.929765e+003,6.293192e+001
2.930729e+003,6.240971e+001
2.931693e+003,6.274696e+001
2.932658e+003,6.369720e+001
2.933622e+003,6.587912e+001
2.934586e+003,6.732223e+001
2.935550e+003,6.346222e+001
2.936515e+003,5.888538e+001
2.937479e+003,6.021281e+001
2.938443e+003,6.469328e+001
2.939407e+003,6.611611e+001
2.940372e+003,6.617405e+001
2.941336e+003,6.907704e+001
2.942300e+003,7.211429e+001
2.943264e+003,7.060036e+001
2.944229e+003,6.888840e+001
2.945193e+003,7.232388e+001
2.946157e+003,7.669926e+001
2.947121e+003,7.855851e+001
2.948085e+003,7.886144e+001
2.949050e+003,7.854327e+001
2.950014e+003,7.830722e+001
2.950978e+003,7.961910e+001
2.951942e+003,8.102874e+001
2.952906e+003,8.069079e+001
2.953871e+003,8.005106e+001
2.954835e+003,7.920329e+001
2.955799e+003,7.993336e+001
2.956763e+003,8.356662e+001
2.957728e+003,8.756409e+001
2.958692e+003,9.041860e+001
2.959656e+003,9.176624e+001
2.960620e+003,9.110860e+001
2.961585e+003,9.021192e+001
2.962549e+003,9.061636e+001
2.963513e+003,9.155544e+001
2.964477e+003,9.281016e+001
2.965442e+003,9.435233e+001
2.966406e+003,9.671416e+001
2.967370e+003,9.732830e+001
2.968334e+003,9.529130e+001
2.969299e+003,9.360641e+001
2.970263e+003,9.375404e+001
2.971227e+003,9.456824e+001
2.972191e+003,9.540977e+001
2.973156e+003,9.631682e+001
2.974120e+003,9.717038e+001
2.975084e+003,9.836034e+001
2.976048e+003,9.980721e+001
2.977012e+003,1.021913e+002
2.977977e+003,1.055682e+002
2.978941e+003,1.081730e+002
2.979905e+003,1.095024e+002
2.980869e+003,1.096439e+002
2.981833e+003,1.087045e+002
2.982798e+003,1.068019e+002
2.983762e+003,1.032023e+002
2.984726e+003,1.038299e+002
2.985690e+003,1.103363e+002
2.986655e+003,1.132301e+002
2.987619e+003,1.125944e+002
2.988583e+003,1.143307e+002
2.989547e+003,1.178726e+002
2.990512e+003,1.181791e+002
2.991476e+003,1.155131e+002
2.992440e+003,1.136775e+002
2.993404e+003,1.132899e+002
2.994369e+003,1.129483e+002
2.995333e+003,1.126683e+002
2.996297e+003,1.148455e+002
2.997261e+003,1.187803e+002
2.998226e+003,1.200771e+002
2.999190e+003,1.195799e+002
3.000154e+003,1.192488e+002
3.001118e+003,1.191471e+002
3.002083e+003,1.182678e+002
3.003047e+003,1.179043e+002
3.004011e+003,1.207976e+002
3.004975e+003,1.254181e+002
3.005939e+003,1.285548e+002
3.006904e+003,1.299804e+002
3.007868e+003,1.278598e+002
3.008832e+003,1.249309e+002
3.009796e+003,1.250665e+002
3.010760e+003,1.266833e+002
3.011725e+003,1.288792e+002
3.012689e+003,1.306036e+002
3.013653e+003,1.311070e+002
3.014617e+003,1.308018e+002
3.015582e+003,1.299294e+002
3.016546e+003,1.297757e+002
3.017510e+003,1.326231e+002
3.018474e+003,1.357028e+002
3.019439e+003,1.358836e+002
3.020403e+003,1.362215e+002
3.021367e+003,1.394402e+002
3.022331e+003,1.410638e+002
3.023296e+003,1.392267e+002
3.024260e+003,1.391480e+002
3.025224e+003,1.431777e+002
3.026188e+003,1.457345e+002
3.027153e+003,1.431485e+002
3.028117e+003,1.420841e+002
3.029081e+003,1.490178e+002
3.030045e+003,1.524693e+002
3.031010e+003,1.488546e+002
3.031974e+003,1.476275e+002
3.032938e+003,1.498799e+002
3.033902e+003,1.528289e+002
3.034866e+003,1.554691e+002
3.035831e+003,1.564091e+002
3.036795e+003,1.554560e+002
3.037759e+003,1.533717e+002
3.038723e+003,1.501185e+002
3.039688e+003,1.520691e+002
3.040652e+003,1.607361e+002
3.041616e+003,1.620973e+002
3.042580e+003,1.576003e+002
3.043544e+003,1.556758e+002
3.044509e+003,1.566567e+002
3.045473e+003,1.602355e+002
3.046437e+003,1.646793e+002
3.047401e+003,1.659421e+002
3.048366e+003,1.654222e+002
3.049330e+003,1.679106e+002
3.050294e+003,1.723970e+002
3.051258e+003,1.754691e+002
3.052223e+003,1.772334e+002
3.053187e+003,1.779623e+002
3.054151e+003,1.775631e+002
3.055115e+003,1.743897e+002
3.056080e+003,1.717733e+002
3.057044e+003,1.734638e+002
3.058008e+003,1.762111e+002
3.058972e+003,1.771887e+002
3.059937e+003,1.776685e+002
3.060901e+003,1.791835e+002
3.061865e+003,1.810016e+002
3.062829e+003,1.832320e+002
3.063793e+003,1.841107e+002
3.064758e+003,1.808007e+002
3.065722e+003,1.790398e+002
3.066686e+003,1.806696e+002
3.067650e+003,1.831618e+002
3.068615e+003,1.854450e+002
3.069579e+003,1.860532e+002
3.070543e+003,1.843255e+002
3.071507e+003,1.834366e+002
3.072471e+003,1.853428e+002
3.073436e+003,1.870476e+002
3.074400e+003,1.882394e+002
3.075364e+003,1.886873e+002
3.076328e+003,1.884210e+002
3.077293e+003,1.880477e+002
3.078257e+003,1.880453e+002
3.079221e+003,1.901686e+002
3.080185e+003,1.939223e+002
3.081150e+003,1.960034e+002
3.082114e+003,1.961263e+002
3.083078e+003,1.976185e+002
3.084042e+003,2.002501e+002
3.085007e+003,2.001158e+002
3.085971e+003,1.985551e+002
3.086935e+003,2.003935e+002
3.087899e+003,2.028797e+002
3.088864e+003,1.996583e+002
3.089828e+003,1.956194e+002
3.090792e+003,1.990226e+002
3.091756e+003,2.041058e+002
3.092720e+003,2.031762e+002
3.093685e+003,1.994215e+002
3.094649e+003,1.975474e+002
3.095613e+003,1.969364e+002
3.096577e+003,1.971738e+002
3.097542e+003,1.980512e+002
3.098506e+003,1.994209e+002
3.099470e+003,2.016717e+002
3.100434e+003,2.051844e+002
3.101398e+003,2.080546e+002
3.102363e+003,2.092989e+002
3.103327e+003,2.096042e+002
3.104291e+003,2.093691e+002
3.105255e+003,2.084662e+002
3.106220e+003,2.045444e+002
3.107184e+003,2.054826e+002
3.108148e+003,2.127588e+002
3.109112e+003,2.157967e+002
3.110077e+003,2.139953e+002
3.111041e+003,2.121295e+002
3.112005e+003,2.113918e+002
3.112969e+003,2.118421e+002
3.113934e+003,2.132969e+002
3.114898e+003,2.146372e+002
3.115862e+003,2.157909e+002
3.116826e+003,2.162555e+002
3.117791e+003,2.166716e+002
3.118755e+003,2.217768e+002
3.119719e+003,2.277321e+002
3.120683e+003,2.261049e+002
3.121647e+003,2.219525e+002
3.122612e+003,2.233149e+002
3.123576e+003,2.266938e+002
3.124540e+003,2.285771e+002
3.125504e+003,2.294391e+002
3.126469e+003,2.298222e+002
3.127433e+003,2.298435e+002
3.128397e+003,2.292202e+002
3.129361e+003,2.289134e+002
3.130325e+003,2.299389e+002
3.131290e+003,2.306266e+002
3.132254e+003,2.303626e+002
3.133218e+003,2.308952e+002
3.134182e+003,2.328155e+002
3.135147e+003,2.347289e+002
3.136111e+003,2.359468e+002
3.137075e+003,2.364122e+002
3.138039e+003,2.358474e+002
3.139004e+003,2.348498e+002
3.139968e+003,2.331019e+002
3.140932e+003,2.359211e+002
3.141896e+003,2.421448e+002
3.142861e+003,2.442987e+002
3.143825e+003,2.432119e+002
3.144789e+003,2.438813e+002
3.145753e+003,2.465839e+002
3.146718e+003,2.494629e+002
3.147682e+003,2.521530e+002
3.148646e+003,2.538956e+002
3.149610e+003,2.543334e+002
3.150574e+003,2.508485e+002
3.151539e+003,2.472473e+002
3.152503e+003,2.487342e+002
3.153467e+003,2.520163e+002
3.154431e+003,2.551968e+002
3.155396e+003,2.562274e+002
3.156360e+003,2.535239e+002
3.157324e+003,2.512593e+002
3.158288e+003,2.531739e+002
3.159252e+003,2.557796e+002
3.160217e+003,2.559059e+002
3.161181e+003,2.574318e+002
3.162145e+003,2.621845e+002
3.163109e+003,2.642919e+002
3.164074e+003,2.631537e+002
3.165038e+003,2.642079e+002
3.166002e+003,2.677482e+002
3.166966e+003,2.683576e+002
3.167931e+003,2.652548e+002
3.168895e+003,2.647483e+002
3.169859e+003,2.672182e+002
3.170823e+003,2.687386e+002
3.171788e+003,2.693612e+002
3.172752e+003,2.685284e+002
3.173716e+003,2.676670e+002
3.174680e+003,2.709200e+002
3.175645e+003,2.745080e+002
3.176609e+003,2.713086e+002
3.177573e+003,2.674894e+002
3.178537e+003,2.693521e+002
3.179501e+003,2.735042e+002
3.180466e+003,2.761620e+002
3.181430e+003,2.768052e+002
3.182394e+003,2.731323e+002
3.183358e+003,2.701005e+002
3.184323e+003,2.692240e+002
3.185287e+003,2.715734e+002
3.186251e+003,2.774513e+002
3.187215e+003,2.804347e+002
3.188179e+003,2.788235e+002
3.189144e+003,2.776987e+002
3.190108e+003,2.789716e+002
3.191072e+003,2.786454e+002
3.192036e+003,2.756701e+002
3.193001e+003,2.746316e+002
3.193965e+003,2.754121e+002
3.194929e+003,2.776584e+002
3.195893e+003,2.805767e+002
3.196858e+003,2.835072e+002
3.197822e+003,2.852104e+002
3.198786e+003,2.824747e+002
3.199750e+003,2.790159e+002
3.200715e+003,2.802345e+002
3.201679e+003,2.835521e+002
3.202643e+003,2.852722e+002
3.203607e+003,2.852436e+002
3.204572e+003,2.809185e+002
3.205536e+003,2.786809e+002
3.206500e+003,2.824863e+002
3.207464e+003,2.857899e+002
3.208428e+003,2.864952e+002
3.209393e+003,2.853651e+002
3.210357e+003,2.829977e+002
3.211321e+003,2.820013e+002
3.212285e+003,2.836569e+002
3.213250e+003,2.860784e+002
3.214214e+003,2.895020e+002
3.215178e+003,2.892063e+002
3.216142e+003,2.864130e+002
3.217106e+003,2.883274e+002
3.218071e+003,2.928942e+002
3.219035e+003,2.943152e+002
3.219999e+003,2.932522e+002
3.220963e+003,2.925033e+002
3.221928e+003,2.922944e+002
3.222892e+003,2.930906e+002
3.223856e+003,2.942878e+002
3.224820e+003,2.948547e+002
3.225785e+003,2.953557e+002
3.226749e+003,2.960846e+002
3.227713e+003,2.973253e+002
3.228677e+003,2.993996e+002
3.229642e+003,3.001407e+002
3.230606e+003,2.988991e+002
3.231570e+003,2.987126e+002
3.232534e+003,3.010125e+002
3.233499e+003,3.028094e+002
3.234463e+003,3.025484e+002
3.235427e+003,3.047238e+002
3.236391e+003,3.090841e+002
3.237355e+003,3.077557e+002
3.238320e+003,3.032047e+002
3.239284e+003,3.034375e+002
3.240248e+003,3.071480e+002
3.241212e+003,3.103274e+002
3.242177e+003,3.128279e+002
3.243141e+003,3.150934e+002
3.244105e+003,3.164831e+002
3.245069e+003,3.150505e+002
3.246033e+003,3.131218e+002
3.246998e+003,3.131808e+002
3.247962e+003,3.134016e+002
3.248926e+003,3.124943e+002
3.249890e+003,3.135508e+002
3.250855e+003,3.173656e+002
3.251819e+003,3.194485e+002
3.252783e+003,3.183038e+002
3.253747e+003,3.184911e+002
3.254712e+003,3.221681e+002
3.255676e+003,3.220954e+002
3.256640e+003,3.177556e+002
3.257604e+003,3.177370e+002
3.258569e+003,3.207206e+002
3.259533e+003,3.222571e+002
3.260497e+003,3.228306e+002
3.261461e+003,3.230880e+002
3.262426e+003,3.250300e+002
3.263390e+003,3.315096e+002
3.264354e+003,3.380847e+002
3.265318e+003,3.380659e+002
3.266282e+003,3.356786e+002
3.267247e+003,3.343235e+002
3.268211e+003,3.339768e+002
3.269175e+003,3.348481e+002
3.270139e+003,3.360980e+002
3.271104e+003,3.375606e+002
3.272068e+003,3.393276e+002
3.273032e+003,3.412473e+002
3.273996e+003,3.420385e+002
3.274960e+003,3.414779e+002
3.275925e+003,3.432619e+002
3.276889e+003,3.473683e+002
3.277853e+003,3.476252e+002
3.278817e+003,3.457231e+002
3.279782e+003,3.463568e+002
3.280746e+003,3.480592e+002
3.281710e+003,3.487881e+002
3.282674e+003,3.486010e+002
3.283639e+003,3.474316e+002
3.284603e+003,3.473042e+002
3.285567e+003,3.505101e+002
3.286531e+003,3.529023e+002
3.287496e+003,3.479067e+002
3.288460e+003,3.470438e+002
3.289424e+003,3.552071e+002
3.290388e+003,3.591350e+002
3.291353e+003,3.577000e+002
3.292317e+003,3.558467e+002
3.293281e+003,3.550743e+002
3.294245e+003,3.571118e+002
3.295209e+003,3.609737e+002
3.296174e+003,3.606891e+002
3.297138e+003,3.576900e+002
3.298102e+003,3.587178e+002
3.299066e+003,3.612665e+002
3.300031e+003,3.603813e+002
3.300995e+003,3.586719e+002
3.301959e+003,3.582207e+002
3.302923e+003,3.586827e+002
3.303887e+003,3.599327e+002
3.304852e+003,3.620262e+002
3.305816e+003,3.649720e+002
3.306780e+003,3.673594e+002
3.307744e+003,3.683582e+002
3.308709e+003,3.687456e+002
3.309673e+003,3.684822e+002
3.310637e+003,3.695539e+002
3.311601e+003,3.716498e+002
3.312566e+003,3.734101e+002
3.313530e+003,3.745391e+002
3.314494e+003,3.742775e+002
3.315458e+003,3.739395e+002
3.316423e+003,3.759614e+002
3.317387e+003,3.779813e+002
3.318351e+003,3.745426e+002
3.319315e+003,3.711084e+002
3.320280e+003,3.752916e+002
3.321244e+003,3.777787e+002
3.322208e+003,3.746262e+002
3.323172e+003,3.725847e+002
3.324136e+003,3.732220e+002
3.325101e+003,3.732946e+002
3.326065e+003,3.722412e+002
3.327029e+003,3.746869e+002
3.327993e+003,3.816060e+002
3.328958e+003,3.835712e+002
3.329922e+003,3.817129e+002
3.330886e+003,3.856119e+002
3.331850e+003,3.910312e+002
3.332814e+003,3.894532e+002
3.333779e+003,3.861315e+002
3.334743e+003,3.862868e+002
3.335707e+003,3.887602e+002
3.336671e+003,3.929000e+002
3.337636e+003,3.948603e+002
3.338600e+003,3.902805e+002
3.339564e+003,3.874802e+002
3.340528e+003,3.911729e+002
3.341493e+003,3.954748e+002
3.342457e+003,3.999028e+002
3.343421e+003,3.988469e+002
3.344385e+003,3.944981e+002
3.345350e+003,3.962694e+002
3.346314e+003,4.021962e+002
3.347278e+003,4.029591e+002
3.348242e+003,4.010656e+002
3.349207e+003,4.026048e+002
3.350171e+003,4.053007e+002
3.351135e+003,4.048529e+002
3.352099e+003,4.050464e+002
3.353063e+003,4.098787e+002
3.354028e+003,4.125313e+002
3.354992e+003,4.112803e+002
3.355956e+003,4.108362e+002
3.356920e+003,4.126729e+002
3.357885e+003,4.142130e+002
3.358849e+003,4.145830e+002
3.359813e+003,4.137229e+002
3.360777e+003,4.118106e+002
3.361741e+003,4.138279e+002
3.362706e+003,4.171942e+002
3.363670e+003,4.155310e+002
3.364634e+003,4.128517e+002
3.365598e+003,4.140444e+002
3.366563e+003,4.169010e+002
3.367527e+003,4.199576e+002
3.368491e+003,4.227602e+002
3.369455e+003,4.248393e+002
3.370420e+003,4.268727e+002
3.371384e+003,4.303065e+002
3.372348e+003,4.304967e+002
3.373312e+003,4.274779e+002
3.374277e+003,4.267530e+002
3.375241e+003,4.281609e+002
3.376205e+003,4.289796e+002
3.377169e+003,4.296908e+002
3.378134e+003,4.328140e+002
3.379098e+003,4.362907e+002
3.380062e+003,4.359301e+002
3.381026e+003,4.341346e+002
3.381990e+003,4.333682e+002
3.382955e+003,4.340576e+002
3.383919e+003,4.378451e+002
3.384883e+003,4.385545e+002
3.385847e+003,4.350993e+002
3.386812e+003,4.333957e+002
3.387776e+003,4.346162e+002
3.388740e+003,4.336946e+002
3.389704e+003,4.298864e+002
3.390668e+003,4.308033e+002
3.391633e+003,4.352852e+002
3.392597e+003,4.362777e+002
3.393561e+003,4.357230e+002
3.394525e+003,4.355965e+002
3.395490e+003,4.369747e+002
3.396454e+003,4.408375e+002
3.397418e+003,4.436837e+002
3.398382e+003,4.435889e+002
3.399347e+003,4.439657e+002
3.400311e+003,4.473589e+002
3.401275e+003,4.478008e+002
3.402239e+003,4.430421e+002
3.403204e+003,4.433840e+002
3.404168e+003,4.473180e+002
3.405132e+003,4.462600e+002
3.406096e+003,4.430451e+002
3.407061e+003,4.455688e+002
3.408025e+003,4.494789e+002
3.408989e+003,4.491492e+002
3.409953e+003,4.475388e+002
3.410917e+003,4.484104e+002
3.411882e+003,4.490386e+002
3.412846e+003,4.468279e+002
3.413810e+003,4.449104e+002
3.414774e+003,4.436367e+002
3.415739e+003,4.454839e+002
3.416703e+003,4.496730e+002
3.417667e+003,4.513974e+002
3.418631e+003,4.508693e+002
3.419595e+003,4.526519e+002
3.420560e+003,4.551416e+002
3.421524e+003,4.526371e+002
3.422488e+003,4.489920e+002
3.423452e+003,4.512087e+002
3.424417e+003,4.539239e+002
3.425381e+003,4.532284e+002
3.426345e+003,4.551329e+002
3.427309e+003,4.608707e+002
3.428274e+003,4.605503e+002
3.429238e+003,4.525389e+002
3.430202e+003,4.541362e+002
3.431166e+003,4.683007e+002
3.432131e+003,4.717005e+002
3.433095e+003,4.667861e+002
3.434059e+003,4.619755e+002
3.435023e+003,4.589142e+002
3.435988e+003,4.605601e+002
3.436952e+003,4.636886e+002
3.437916e+003,4.664199e+002
3.438880e+003,4.683673e+002
3.439844e+003,4.692939e+002
3.440809e+003,4.682483e+002
3.441773e+003,4.632962e+002
3.442737e+003,4.631161e+002
3.443701e+003,4.681123e+002
3.444666e+003,4.715018e+002
3.445630e+003,4.733017e+002
3.446594e+003,4.735706e+002
3.447558e+003,4.738884e+002
3.448522e+003,4.766076e+002
3.449487e+003,4.794786e+002
3.450451e+003,4.803138e+002
3.451415e+003,4.801982e+002
3.452379e+003,4.788298e+002
3.453344e+003,4.801253e+002
3.454308e+003,4.864068e+002
3.455272e+003,4.873125e+002
3.456236e+003,4.837172e+002
3.457201e+003,4.869119e+002
3.458165e+003,4.945881e+002
3.459129e+003,4.949902e+002
3.460093e+003,4.916668e+002
3.461058e+003,4.920644e+002
3.462022e+003,4.938704e+002
3.462986e+003,4.923943e+002
3.463950e+003,4.920092e+002
3.464915e+003,4.971299e+002
3.465879e+003,5.013552e+002
3.466843e+003,5.036938e+002
3.467807e+003,5.043577e+002
3.468771e+003,5.037730e+002
3.469736e+003,5.032407e+002
3.470700e+003,5.028150e+002
3.471664e+003,5.007701e+002
3.472628e+003,4.992778e+002
3.473593e+003,5.085748e+002
3.474557e+003,5.178405e+002
3.475521e+003,5.114147e+002
3.476485e+003,5.073486e+002
3.477449e+003,5.128176e+002
3.478414e+003,5.159266e+002
3.479378e+003,5.131426e+002
3.480342e+003,5.130733e+002
3.481306e+003,5.185435e+002
3.482271e+003,5.221289e+002
3.483235e+003,5.236555e+002
3.484199e+003,5.226738e+002
3.485163e+003,5.214655e+002
3.486128e+003,5.245176e+002
3.487092e+003,5.284991e+002
3.488056e+003,5.313046e+002
3.489020e+003,5.312112e+002
3.489985e+003,5.274916e+002
3.490949e+003,5.255608e+002
3.491913e+003,5.284153e+002
3.492877e+003,5.326927e+002
3.493842e+003,5.380408e+002
3.494806e+003,5.390501e+002
3.495770e+003,5.376934e+002
3.496734e+003,5.385923e+002
3.497698e+003,5.408804e+002
3.498663e+003,5.432852e+002
3.499627e+003,5.453327e+002
3.500591e+003,0.000000e+000
