9.974011e+001,4.094219e+002
1.007043e+002,4.104980e+002
1.016686e+002,4.130711e+002
1.026328e+002,4.174125e+002
1.035970e+002,4.196617e+002
1.045613e+002,4.203792e+002
1.055255e+002,4.195135e+002
1.064897e+002,4.167728e+002
1.074540e+002,4.091209e+002
1.084182e+002,4.024207e+002
1.093824e+002,3.968037e+002
1.103467e+002,3.922734e+002
1.113109e+002,3.887512e+002
1.122751e+002,3.881649e+002
1.132394e+002,3.890928e+002
1.142036e+002,3.910129e+002
1.151678e+002,3.933353e+002
1.161321e+002,3.950375e+002
1.170963e+002,3.946589e+002
1.180605e+002,3.925815e+002
1.190248e+002,3.890993e+002
1.199890e+002,3.845841e+002
1.209532e+002,3.791766e+002
1.219175e+002,3.762747e+002
1.228817e+002,3.771694e+002
1.238459e+002,3.798537e+002
1.248102e+002,3.803884e+002
1.257744e+002,3.753512e+002
1.267386e+002,3.712608e+002
1.277029e+002,3.689293e+002
1.286671e+002,3.679938e+002
1.296313e+002,3.667911e+002
1.305956e+002,3.639963e+002
1.315598e+002,3.610552e+002
1.325240e+002,3.585358e+002
1.334883e+002,3.568009e+002
1.344525e+002,3.558416e+002
1.354167e+002,3.553128e+002
1.363810e+002,3.549371e+002
1.373452e+002,3.546111e+002
1.383094e+002,3.542792e+002
1.392737e+002,3.540522e+002
1.402379e+002,3.529965e+002
1.412021e+002,3.505185e+002
1.421664e+002,3.475298e+002
1.431306e+002,3.454575e+002
1.440948e+002,3.453553e+002
1.450591e+002,3.455989e+002
1.460233e+002,3.460320e+002
1.469875e+002,3.464418e+002
1.479518e+002,3.465501e+002
1.489160e+002,3.460751e+002
1.498802e+002,3.449407e+002
1.508445e+002,3.431771e+002
1.518087e+002,3.410587e+002
1.527729e+002,3.391932e+002
1.537372e+002,3.382112e+002
1.547014e+002,3.372538e+002
1.556656e+002,3.360259e+002
1.566299e+002,3.344371e+002
1.575941e+002,3.327496e+002
1.585583e+002,3.303085e+002
1.595226e+002,3.268222e+002
1.604868e+002,3.233055e+002
1.614510e+002,3.206219e+002
1.624153e+002,3.185796e+002
1.633795e+002,3.168650e+002
1.643438e+002,3.160569e+002
1.653080e+002,3.158696e+002
1.662722e+002,3.158494e+002
1.672365e+002,3.158929e+002
1.682007e+002,3.153964e+002
1.691649e+002,3.138353e+002
1.701292e+002,3.116199e+002
1.710934e+002,3.096502e+002
1.720576e+002,3.100674e+002
1.730219e+002,3.114066e+002
1.739861e+002,3.116386e+002
1.749503e+002,3.098814e+002
1.759146e+002,3.059527e+002
1.768788e+002,3.021594e+002
1.778430e+002,2.989778e+002
1.788073e+002,2.970369e+002
1.797715e+002,2.971237e+002
1.807357e+002,3.002001e+002
1.817000e+002,3.023714e+002
1.826642e+002,3.019877e+002
1.836284e+002,3.007085e+002
1.845927e+002,2.999500e+002
1.855569e+002,3.009456e+002
1.865211e+002,3.009355e+002
1.874854e+002,2.986348e+002
1.884496e+002,2.952302e+002
1.894138e+002,2.920810e+002
1.903781e+002,2.908760e+002
1.913423e+002,2.910662e+002
1.923065e+002,2.905193e+002
1.932708e+002,2.888378e+002
1.942350e+002,2.862556e+002
1.951992e+002,2.842513e+002
1.961635e+002,2.834293e+002
1.971277e+002,2.830938e+002
1.980919e+002,2.835463e+002
1.990562e+002,2.847889e+002
2.000204e+002,2.854315e+002
2.009846e+002,2.849135e+002
2.019489e+002,2.839286e+002
2.029131e+002,2.824099e+002
2.038773e+002,2.804131e+002
2.048416e+002,2.789625e+002
2.058058e+002,2.792245e+002
2.067700e+002,2.800538e+002
2.077343e+002,2.806555e+002
2.086985e+002,2.804504e+002
2.096627e+002,2.797026e+002
2.106270e+002,2.797455e+002
2.115912e+002,2.804388e+002
2.125554e+002,2.810775e+002
2.135197e+002,2.808075e+002
2.144839e+002,2.788809e+002
2.154481e+002,2.771632e+002
2.164124e+002,2.759532e+002
2.173766e+002,2.751570e+002
2.183408e+002,2.745311e+002
2.193051e+002,2.738969e+002
2.202693e+002,2.734600e+002
2.212335e+002,2.731959e+002
2.221978e+002,2.729985e+002
2.231620e+002,2.727149e+002
2.241262e+002,2.721397e+002
2.250904e+002,2.722502e+002
2.260547e+002,2.737789e+002
2.270189e+002,2.764060e+002
2.279831e+002,2.791370e+002
2.289474e+002,2.794889e+002
2.299116e+002,2.781902e+002
2.308758e+002,2.766687e+002
2.318401e+002,2.754579e+002
2.328043e+002,2.746572e+002
2.337685e+002,2.738957e+002
2.347328e+002,2.717597e+002
2.356970e+002,2.698389e+002
2.366612e+002,2.692240e+002
2.376255e+002,2.705666e+002
2.385897e+002,2.715402e+002
2.395539e+002,2.711315e+002
2.405182e+002,2.704196e+002
2.414824e+002,2.701422e+002
2.424466e+002,2.708016e+002
2.434109e+002,2.716541e+002
2.443751e+002,2.712775e+002
2.453393e+002,2.701914e+002
2.463036e+002,2.692448e+002
2.472678e+002,2.694169e+002
2.482320e+002,2.709800e+002
2.491963e+002,2.715280e+002
2.501605e+002,2.705662e+002
2.511247e+002,2.691127e+002
2.520890e+002,2.688918e+002
2.530532e+002,2.713182e+002
2.540174e+002,2.730484e+002
2.549817e+002,2.742727e+002
2.559459e+002,2.750590e+002
2.569102e+002,2.752706e+002
2.578744e+002,2.729507e+002
2.588386e+002,2.709594e+002
2.598029e+002,2.715354e+002
2.607671e+002,2.741486e+002
2.617313e+002,2.769718e+002
2.626956e+002,2.767149e+002
2.636598e+002,2.753263e+002
2.646240e+002,2.751078e+002
2.655883e+002,2.763418e+002
2.665525e+002,2.784478e+002
2.675167e+002,2.797166e+002
2.684810e+002,2.806048e+002
2.694452e+002,2.807778e+002
2.704094e+002,2.793849e+002
2.713737e+002,2.762917e+002
2.723379e+002,2.752437e+002
2.733021e+002,2.774899e+002
2.742664e+002,2.800667e+002
2.752306e+002,2.825830e+002
2.761948e+002,2.849290e+002
2.771591e+002,2.862800e+002
2.781233e+002,2.855874e+002
2.790875e+002,2.843532e+002
2.800518e+002,2.832471e+002
2.810160e+002,2.826148e+002
2.819802e+002,2.822496e+002
2.829445e+002,2.816508e+002
2.839087e+002,2.809726e+002
2.848729e+002,2.807244e+002
2.858372e+002,2.813717e+002
2.868014e+002,2.832771e+002
2.877656e+002,2.844998e+002
2.887299e+002,2.840858e+002
2.896941e+002,2.833214e+002
2.906583e+002,2.833559e+002
2.916226e+002,2.848790e+002
2.925868e+002,2.867290e+002
2.935510e+002,2.893094e+002
2.945153e+002,2.916662e+002
2.954795e+002,2.926402e+002
2.964437e+002,2.909421e+002
2.974080e+002,2.885331e+002
2.983722e+002,2.881456e+002
2.993364e+002,2.891586e+002
3.003007e+002,2.905292e+002
3.012649e+002,2.909100e+002
3.022291e+002,2.901064e+002
3.031934e+002,2.896876e+002
3.041576e+002,2.896929e+002
3.051218e+002,2.902666e+002
3.060861e+002,2.916574e+002
3.070503e+002,2.949032e+002
3.080145e+002,2.964088e+002
3.089788e+002,2.958668e+002
3.099430e+002,2.942451e+002
3.109072e+002,2.929023e+002
3.118715e+002,2.923513e+002
3.128357e+002,2.925433e+002
3.137999e+002,2.930291e+002
3.147642e+002,2.934935e+002
3.157284e+002,2.937908e+002
3.166926e+002,2.942911e+002
3.176569e+002,2.950826e+002
3.186211e+002,2.953588e+002
3.195853e+002,2.950737e+002
3.205496e+002,2.947014e+002
3.215138e+002,2.955820e+002
3.224780e+002,2.981737e+002
3.234423e+002,3.002860e+002
3.244065e+002,3.020232e+002
3.253707e+002,3.033024e+002
3.263350e+002,3.036273e+002
3.272992e+002,3.011297e+002
3.282634e+002,2.999622e+002
3.292277e+002,3.014392e+002
3.301919e+002,3.048958e+002
3.311561e+002,3.080213e+002
3.321204e+002,3.084419e+002
3.330846e+002,3.078167e+002
3.340488e+002,3.066285e+002
3.350131e+002,3.052445e+002
3.359773e+002,3.041009e+002
3.369415e+002,3.045107e+002
3.379058e+002,3.063191e+002
3.388700e+002,3.082451e+002
3.398342e+002,3.101444e+002
3.407985e+002,3.119191e+002
3.417627e+002,3.126927e+002
3.427269e+002,3.105275e+002
3.436912e+002,3.087677e+002
3.446554e+002,3.082343e+002
3.456196e+002,3.089681e+002
3.465839e+002,3.102004e+002
3.475481e+002,3.127502e+002
3.485123e+002,3.149459e+002
3.494765e+002,3.155904e+002
3.504408e+002,3.146362e+002
3.514050e+002,3.131954e+002
3.523692e+002,3.133683e+002
3.533335e+002,3.143960e+002
3.542977e+002,3.154752e+002
3.552619e+002,3.164527e+002
3.562262e+002,3.176291e+002
3.571904e+002,3.200936e+002
3.581546e+002,3.241418e+002
3.591189e+002,3.267831e+002
3.600831e+002,3.262285e+002
3.610473e+002,3.225699e+002
3.620116e+002,3.204328e+002
3.629758e+002,3.225029e+002
3.639400e+002,3.241492e+002
3.649043e+002,3.236490e+002
3.658685e+002,3.211174e+002
3.668327e+002,3.188994e+002
3.677970e+002,3.198635e+002
3.687612e+002,3.215967e+002
3.697254e+002,3.230162e+002
3.706897e+002,3.237728e+002
3.716539e+002,3.241196e+002
3.726181e+002,3.245108e+002
3.735824e+002,3.246770e+002
3.745466e+002,3.247298e+002
3.755108e+002,3.248945e+002
3.764751e+002,3.252708e+002
3.774393e+002,3.252796e+002
3.784035e+002,3.238508e+002
3.793678e+002,3.229373e+002
3.803320e+002,3.235476e+002
3.812962e+002,3.254819e+002
3.822605e+002,3.267676e+002
3.832247e+002,3.253048e+002
3.841889e+002,3.239323e+002
3.851532e+002,3.234105e+002
3.861174e+002,3.238373e+002
3.870816e+002,3.247791e+002
3.880459e+002,3.258943e+002
3.890101e+002,3.271619e+002
3.899743e+002,3.289380e+002
3.909386e+002,3.312696e+002
3.919028e+002,3.337424e+002
3.928670e+002,3.345387e+002
3.938313e+002,3.325562e+002
3.947955e+002,3.309974e+002
3.957597e+002,3.305349e+002
3.967240e+002,3.311236e+002
3.976882e+002,3.321362e+002
3.986524e+002,3.352527e+002
3.996167e+002,3.373647e+002
4.005809e+002,3.367637e+002
4.015451e+002,3.341764e+002
4.025094e+002,3.320787e+002
4.034736e+002,3.337889e+002
4.044378e+002,3.362431e+002
4.054021e+002,3.367155e+002
4.063663e+002,3.353608e+002
4.073305e+002,3.336249e+002
4.082948e+002,3.342237e+002
4.092590e+002,3.369561e+002
4.102232e+002,3.386153e+002
4.111875e+002,3.387438e+002
4.121517e+002,3.378055e+002
4.131159e+002,3.370281e+002
4.140802e+002,3.370283e+002
4.150444e+002,3.378304e+002
4.160086e+002,3.397261e+002
4.169729e+002,3.420599e+002
4.179371e+002,3.437561e+002
4.189013e+002,3.435593e+002
4.198656e+002,3.422643e+002
4.208298e+002,3.404009e+002
4.217940e+002,3.384697e+002
4.227583e+002,3.370636e+002
4.237225e+002,3.368333e+002
4.246867e+002,3.380693e+002
4.256510e+002,3.399314e+002
4.266152e+002,3.420223e+002
4.275794e+002,3.435780e+002
4.285437e+002,3.437290e+002
4.295079e+002,3.417064e+002
4.304721e+002,3.414323e+002
4.314364e+002,3.443810e+002
4.324006e+002,3.483715e+002
4.333648e+002,3.510887e+002
4.343291e+002,3.515320e+002
4.352933e+002,3.514980e+002
4.362575e+002,3.516552e+002
4.372218e+002,3.518380e+002
4.381860e+002,3.519066e+002
4.391502e+002,3.517865e+002
4.401145e+002,3.515832e+002
4.410787e+002,3.511880e+002
4.420429e+002,3.512222e+002
4.430072e+002,3.525806e+002
4.439714e+002,3.556830e+002
4.449356e+002,3.599446e+002
4.458999e+002,3.609839e+002
4.468641e+002,3.589313e+002
4.478283e+002,3.564342e+002
4.487926e+002,3.550208e+002
4.497568e+002,3.550449e+002
4.507210e+002,3.556091e+002
4.516853e+002,3.559733e+002
4.526495e+002,3.560869e+002
4.536137e+002,3.561077e+002
4.545780e+002,3.561695e+002
4.555422e+002,3.562468e+002
4.565064e+002,3.565443e+002
4.574707e+002,3.571636e+002
4.584349e+002,3.579873e+002
4.593991e+002,3.587739e+002
4.603634e+002,3.592438e+002
4.613276e+002,3.592547e+002
4.622918e+002,3.589815e+002
4.632561e+002,3.578760e+002
4.642203e+002,3.554961e+002
4.651845e+002,3.524879e+002
4.661488e+002,3.511283e+002
4.671130e+002,3.535451e+002
4.680772e+002,3.547182e+002
4.690415e+002,3.544050e+002
4.700057e+002,3.530690e+002
4.709699e+002,3.512790e+002
4.719342e+002,3.482449e+002
4.728984e+002,3.460562e+002
4.738626e+002,3.458233e+002
4.748269e+002,3.468571e+002
4.757911e+002,3.483260e+002
4.767553e+002,3.496582e+002
4.777196e+002,3.509191e+002
4.786838e+002,3.518961e+002
4.796480e+002,3.522518e+002
4.806123e+002,3.515394e+002
4.815765e+002,3.493374e+002
4.825407e+002,3.452904e+002
4.835050e+002,3.434139e+002
4.844692e+002,3.447347e+002
4.854334e+002,3.468209e+002
4.863977e+002,3.479664e+002
4.873619e+002,3.476151e+002
4.883261e+002,3.459595e+002
4.892904e+002,3.431806e+002
4.902546e+002,3.408561e+002
4.912188e+002,3.397493e+002
4.921831e+002,3.398576e+002
4.931473e+002,3.402086e+002
4.941115e+002,3.393102e+002
4.950758e+002,3.380015e+002
4.960400e+002,3.371544e+002
4.970042e+002,3.371791e+002
4.979685e+002,3.380617e+002
4.989327e+002,3.393159e+002
4.998969e+002,3.407992e+002
5.008612e+002,3.413511e+002
5.018254e+002,3.402937e+002
5.027896e+002,3.380560e+002
5.037539e+002,3.361088e+002
5.047181e+002,3.353765e+002
5.056823e+002,3.351059e+002
5.066466e+002,3.351897e+002
5.076108e+002,3.354950e+002
5.085750e+002,3.357429e+002
5.095393e+002,3.354185e+002
5.105035e+002,3.348862e+002
5.114677e+002,3.352000e+002
5.124320e+002,3.363860e+002
5.133962e+002,3.380615e+002
5.143605e+002,3.396920e+002
5.153247e+002,3.409988e+002
5.162889e+002,3.428461e+002
5.172532e+002,3.455424e+002
5.182174e+002,3.487866e+002
5.191816e+002,3.525618e+002
5.201459e+002,3.569876e+002
5.211101e+002,3.603043e+002
5.220743e+002,3.610568e+002
5.230386e+002,3.616523e+002
5.240028e+002,3.632966e+002
5.249670e+002,3.665755e+002
5.259313e+002,3.714886e+002
5.268955e+002,3.790199e+002
5.278597e+002,3.861093e+002
5.288240e+002,3.905395e+002
5.297882e+002,3.923104e+002
5.307524e+002,3.929557e+002
5.317167e+002,3.954039e+002
5.326809e+002,4.004601e+002
5.336451e+002,4.058765e+002
5.346094e+002,4.108143e+002
5.355736e+002,4.152236e+002
5.365378e+002,4.196040e+002
5.375021e+002,4.246700e+002
5.384663e+002,4.303823e+002
5.394305e+002,4.371801e+002
5.403948e+002,4.440786e+002
5.413590e+002,4.502162e+002
5.423232e+002,4.550782e+002
5.432875e+002,4.581886e+002
5.442517e+002,4.593890e+002
5.452159e+002,4.605372e+002
5.461802e+002,4.629932e+002
5.471444e+002,4.670256e+002
5.481086e+002,4.712754e+002
5.490729e+002,4.724044e+002
5.500371e+002,4.717126e+002
5.510013e+002,4.717733e+002
5.519656e+002,4.738552e+002
5.529298e+002,4.775711e+002
5.538940e+002,4.801192e+002
5.548583e+002,4.786693e+002
5.558225e+002,4.774291e+002
5.567867e+002,4.778293e+002
5.577510e+002,4.791119e+002
5.587152e+002,4.795104e+002
5.596794e+002,4.781331e+002
5.606437e+002,4.764629e+002
5.616079e+002,4.748723e+002
5.625721e+002,4.733165e+002
5.635364e+002,4.718493e+002
5.645006e+002,4.705269e+002
5.654648e+002,4.687869e+002
5.664291e+002,4.649231e+002
5.673933e+002,4.598864e+002
5.683575e+002,4.563995e+002
5.693218e+002,4.564357e+002
5.702860e+002,4.598654e+002
5.712502e+002,4.595300e+002
5.722145e+002,4.525295e+002
5.731787e+002,4.457614e+002
5.741429e+002,4.422935e+002
5.751072e+002,4.419413e+002
5.760714e+002,4.414835e+002
5.770356e+002,4.388253e+002
5.779999e+002,4.357335e+002
5.789641e+002,4.324418e+002
5.799283e+002,4.288218e+002
5.808926e+002,4.247057e+002
5.818568e+002,4.199677e+002
5.828210e+002,4.148000e+002
5.837853e+002,4.105325e+002
5.847495e+002,4.073732e+002
5.857137e+002,4.050653e+002
5.866780e+002,4.034734e+002
5.876422e+002,4.029875e+002
5.886064e+002,4.014308e+002
5.895707e+002,3.981901e+002
5.905349e+002,3.950125e+002
5.914991e+002,3.924023e+002
5.924634e+002,3.902955e+002
5.934276e+002,3.885571e+002
5.943918e+002,3.887975e+002
5.953560e+002,3.885757e+002
5.963203e+002,3.860765e+002
5.972845e+002,3.814723e+002
5.982487e+002,3.761567e+002
5.992130e+002,3.721171e+002
6.001772e+002,3.698339e+002
6.011414e+002,3.676116e+002
6.021057e+002,3.646956e+002
6.030699e+002,3.612564e+002
6.040341e+002,3.582158e+002
6.049984e+002,3.570707e+002
6.059626e+002,3.531653e+002
6.069268e+002,3.448092e+002
6.078911e+002,3.372737e+002
6.088553e+002,3.338391e+002
6.098195e+002,3.344946e+002
6.107838e+002,3.344570e+002
6.117480e+002,3.299727e+002
6.127122e+002,3.250076e+002
6.136765e+002,3.213268e+002
6.146407e+002,3.188612e+002
6.156049e+002,3.164178e+002
6.165692e+002,3.125559e+002
6.175334e+002,3.075930e+002
6.184976e+002,3.032070e+002
6.194619e+002,2.995217e+002
6.204261e+002,2.969325e+002
6.213903e+002,2.962587e+002
6.223546e+002,2.989147e+002
6.233188e+002,2.986146e+002
6.242830e+002,2.941659e+002
6.252473e+002,2.885344e+002
6.262115e+002,2.829875e+002
6.271757e+002,2.779108e+002
6.281400e+002,2.739077e+002
6.291042e+002,2.728355e+002
6.300684e+002,2.721469e+002
6.310327e+002,2.703366e+002
6.319969e+002,2.674040e+002
6.329611e+002,2.643189e+002
6.339254e+002,2.623774e+002
6.348896e+002,2.612057e+002
6.358538e+002,2.589044e+002
6.368181e+002,2.554301e+002
6.377823e+002,2.519082e+002
6.387465e+002,2.497789e+002
6.397108e+002,2.499508e+002
6.406750e+002,2.486367e+002
6.416392e+002,2.440322e+002
6.426035e+002,2.392013e+002
6.435677e+002,2.361189e+002
6.445319e+002,2.349095e+002
6.454962e+002,2.334611e+002
6.464604e+002,2.294688e+002
6.474246e+002,2.253308e+002
6.483889e+002,2.224801e+002
6.493531e+002,2.207225e+002
6.503173e+002,2.193526e+002
6.512816e+002,2.177536e+002
6.522458e+002,2.159587e+002
6.532100e+002,2.129516e+002
6.541743e+002,2.085517e+002
6.551385e+002,2.042851e+002
6.561027e+002,2.012766e+002
6.570670e+002,1.995472e+002
6.580312e+002,1.978791e+002
6.589954e+002,1.963197e+002
6.599597e+002,1.941167e+002
6.609239e+002,1.911199e+002
6.618881e+002,1.876807e+002
6.628524e+002,1.844019e+002
6.638166e+002,1.814717e+002
6.647808e+002,1.790178e+002
6.657451e+002,1.769935e+002
6.667093e+002,1.751687e+002
6.676735e+002,1.733390e+002
6.686378e+002,1.713990e+002
6.696020e+002,1.693587e+002
6.705662e+002,1.668173e+002
6.715305e+002,1.634541e+002
6.724947e+002,1.604505e+002
6.734589e+002,1.589656e+002
6.744232e+002,1.590381e+002
6.753874e+002,1.585719e+002
6.763516e+002,1.562661e+002
6.773159e+002,1.541341e+002
6.782801e+002,1.527381e+002
6.792443e+002,1.514553e+002
6.802086e+002,1.490932e+002
6.811728e+002,1.446081e+002
6.821370e+002,1.398805e+002
6.831013e+002,1.381258e+002
6.840655e+002,1.383155e+002
6.850297e+002,1.383682e+002
6.859940e+002,1.369054e+002
6.869582e+002,1.340809e+002
6.879224e+002,1.315983e+002
6.888867e+002,1.294080e+002
6.898509e+002,1.273631e+002
6.908151e+002,1.258883e+002
6.917794e+002,1.247855e+002
6.927436e+002,1.233145e+002
6.937078e+002,1.209184e+002
6.946721e+002,1.186123e+002
6.956363e+002,1.167080e+002
6.966005e+002,1.152254e+002
6.975648e+002,1.143596e+002
6.985290e+002,1.139581e+002
6.994932e+002,1.128846e+002
7.004575e+002,1.083811e+002
7.014217e+002,1.024220e+002
7.023859e+002,9.799741e+001
7.033502e+002,9.606124e+001
7.043144e+002,9.588268e+001
7.052786e+002,9.563470e+001
7.062429e+002,9.484270e+001
7.072071e+002,9.415664e+001
7.081713e+002,9.406388e+001
7.091356e+002,9.412247e+001
7.100998e+002,9.393616e+001
7.110640e+002,9.333383e+001
7.120283e+002,9.207956e+001
7.129925e+002,8.971162e+001
7.139567e+002,8.703677e+001
7.149210e+002,8.402512e+001
7.158852e+002,8.105049e+001
7.168494e+002,7.899791e+001
7.178137e+002,7.926104e+001
7.187779e+002,8.137772e+001
7.197421e+002,8.143217e+001
7.207064e+002,7.908696e+001
7.216706e+002,7.665183e+001
7.226348e+002,7.669831e+001
7.235991e+002,8.003188e+001
7.245633e+002,8.177462e+001
7.255275e+002,8.024261e+001
7.264918e+002,7.847865e+001
7.274560e+002,7.726546e+001
7.284202e+002,7.685187e+001
7.293845e+002,7.744491e+001
7.303487e+002,7.985140e+001
7.313129e+002,8.178144e+001
7.322772e+002,8.145932e+001
7.332414e+002,7.956785e+001
7.342056e+002,7.684585e+001
7.351699e+002,7.390008e+001
7.361341e+002,7.124213e+001
7.370983e+002,7.111536e+001
7.380626e+002,7.338516e+001
7.390268e+002,7.534764e+001
7.399910e+002,7.672765e+001
7.409553e+002,7.768069e+001
7.419195e+002,7.805418e+001
7.428837e+002,7.687840e+001
7.438480e+002,7.606020e+001
7.448122e+002,7.679692e+001
7.457764e+002,7.807164e+001
7.467407e+002,7.898160e+001
7.477049e+002,7.927593e+001
7.486691e+002,7.953641e+001
7.496334e+002,7.946584e+001
7.505976e+002,7.961810e+001
7.515618e+002,8.209631e+001
7.525261e+002,8.688348e+001
7.534903e+002,9.130215e+001
7.544545e+002,9.136558e+001
7.554188e+002,8.580283e+001
7.563830e+002,8.372725e+001
7.573472e+002,8.621359e+001
7.583115e+002,8.918259e+001
7.592757e+002,9.087868e+001
7.602399e+002,9.160093e+001
7.612042e+002,9.243717e+001
7.621684e+002,9.315670e+001
7.631326e+002,9.380047e+001
7.640969e+002,9.440057e+001
7.650611e+002,9.507957e+001
7.660253e+002,9.628273e+001
7.669896e+002,9.847827e+001
7.679538e+002,1.012103e+002
7.689180e+002,1.016330e+002
7.698823e+002,9.980289e+001
7.708465e+002,9.866196e+001
7.718107e+002,1.001811e+002
7.727750e+002,1.036313e+002
7.737392e+002,1.051837e+002
7.747034e+002,1.030383e+002
7.756677e+002,1.015982e+002
7.766319e+002,1.004445e+002
7.775961e+002,1.001328e+002
7.785604e+002,1.017629e+002
7.795246e+002,1.056365e+002
7.804888e+002,1.091175e+002
7.814531e+002,1.095414e+002
7.824173e+002,1.087201e+002
7.833815e+002,1.076237e+002
7.843458e+002,1.066192e+002
7.853100e+002,1.057070e+002
7.862742e+002,1.047108e+002
7.872385e+002,1.033594e+002
7.882027e+002,1.025665e+002
7.891669e+002,1.025113e+002
7.901312e+002,1.023349e+002
7.910954e+002,1.018328e+002
7.920596e+002,1.013268e+002
7.930239e+002,1.012228e+002
7.939881e+002,1.019487e+002
7.949523e+002,1.021154e+002
7.959166e+002,1.007206e+002
7.968808e+002,9.866012e+001
7.978450e+002,9.710568e+001
7.988093e+002,9.668002e+001
7.997735e+002,9.685352e+001
8.007377e+002,9.701515e+001
8.017020e+002,9.703072e+001
8.026662e+002,9.644164e+001
8.036304e+002,9.506074e+001
8.045947e+002,9.331489e+001
8.055589e+002,9.206628e+001
8.065231e+002,9.141878e+001
8.074874e+002,9.098640e+001
8.084516e+002,9.182648e+001
8.094158e+002,9.189389e+001
8.103801e+002,8.962754e+001
8.113443e+002,8.544101e+001
8.123085e+002,8.201581e+001
8.132728e+002,8.062281e+001
8.142370e+002,7.980338e+001
8.152012e+002,7.883595e+001
8.161655e+002,7.746120e+001
8.171297e+002,7.577108e+001
8.180939e+002,7.406610e+001
8.190582e+002,7.271724e+001
8.200224e+002,7.152742e+001
8.209866e+002,7.023126e+001
8.219509e+002,6.877480e+001
8.229151e+002,6.663168e+001
8.238793e+002,6.423804e+001
8.248436e+002,6.291721e+001
8.258078e+002,6.367204e+001
8.267720e+002,6.339249e+001
8.277363e+002,6.040449e+001
8.287005e+002,5.711690e+001
8.296647e+002,5.559682e+001
8.306290e+002,5.600652e+001
8.315932e+002,5.655035e+001
8.325574e+002,5.540173e+001
8.335217e+002,5.314732e+001
8.344859e+002,5.054688e+001
8.354501e+002,4.770142e+001
8.364144e+002,4.561106e+001
8.373786e+002,4.538215e+001
8.383428e+002,4.702338e+001
8.393071e+002,4.718249e+001
8.402713e+002,4.434389e+001
8.412355e+002,4.201736e+001
8.421998e+002,4.055251e+001
8.431640e+002,3.976836e+001
8.441282e+002,3.966888e+001
8.450925e+002,4.052074e+001
8.460567e+002,4.093893e+001
8.470209e+002,3.938164e+001
8.479852e+002,3.737352e+001
8.489494e+002,3.616885e+001
8.499136e+002,3.600688e+001
8.508779e+002,3.633360e+001
8.518421e+002,3.635305e+001
8.528063e+002,3.604058e+001
8.537706e+002,3.625713e+001
8.547348e+002,3.722739e+001
8.556990e+002,3.818543e+001
8.566633e+002,3.890639e+001
8.576275e+002,3.921130e+001
8.585917e+002,3.817753e+001
8.595560e+002,3.425456e+001
8.605202e+002,3.136509e+001
8.614844e+002,3.076509e+001
8.624487e+002,3.153616e+001
8.634129e+002,3.280783e+001
8.643771e+002,3.401386e+001
8.653414e+002,3.458646e+001
8.663056e+002,3.385233e+001
8.672698e+002,3.273976e+001
8.682341e+002,3.209586e+001
8.691983e+002,3.180278e+001
8.701625e+002,3.184122e+001
8.711268e+002,3.238372e+001
8.720910e+002,3.348920e+001
8.730552e+002,3.366375e+001
8.740195e+002,3.320981e+001
8.749837e+002,3.319871e+001
8.759479e+002,3.386996e+001
8.769122e+002,3.468598e+001
8.778764e+002,3.471621e+001
8.788406e+002,3.331075e+001
8.798049e+002,3.161957e+001
8.807691e+002,3.136031e+001
8.817333e+002,3.170608e+001
8.826976e+002,3.140613e+001
8.836618e+002,3.020114e+001
8.846260e+002,2.894333e+001
8.855903e+002,2.906838e+001
8.865545e+002,3.076591e+001
8.875187e+002,3.152222e+001
8.884830e+002,3.051683e+001
8.894472e+002,2.982449e+001
8.904114e+002,3.086099e+001
8.913757e+002,3.339547e+001
8.923399e+002,3.580206e+001
8.933041e+002,3.772694e+001
8.942684e+002,3.872267e+001
8.952326e+002,3.886291e+001
8.961968e+002,3.827272e+001
8.971611e+002,3.660786e+001
8.981253e+002,3.407867e+001
8.990895e+002,3.218130e+001
9.000538e+002,3.350827e+001
9.010180e+002,3.734413e+001
9.019822e+002,3.951201e+001
9.029465e+002,3.953899e+001
9.039107e+002,3.904979e+001
9.048749e+002,3.955598e+001
9.058392e+002,4.106595e+001
9.068034e+002,4.219564e+001
9.077676e+002,4.270203e+001
9.087319e+002,4.321346e+001
9.096961e+002,4.376888e+001
9.106603e+002,4.464715e+001
9.116246e+002,4.610273e+001
9.125888e+002,4.811482e+001
9.135530e+002,5.018090e+001
9.145173e+002,5.154800e+001
9.154815e+002,5.254348e+001
9.164457e+002,5.401765e+001
9.174100e+002,5.628233e+001
9.183742e+002,5.888927e+001
9.193384e+002,6.116001e+001
9.203027e+002,6.302608e+001
9.212669e+002,6.485812e+001
9.222311e+002,6.546590e+001
9.231954e+002,6.634131e+001
9.241596e+002,6.888460e+001
9.251238e+002,7.226527e+001
9.260881e+002,7.455035e+001
9.270523e+002,7.482228e+001
9.280165e+002,7.512483e+001
9.289808e+002,7.722832e+001
9.299450e+002,8.008181e+001
9.309092e+002,8.281728e+001
9.318735e+002,8.520247e+001
9.328377e+002,8.747191e+001
9.338019e+002,8.996569e+001
9.347662e+002,9.265623e+001
9.357304e+002,9.514577e+001
9.366946e+002,9.794345e+001
9.376589e+002,1.005074e+002
9.386231e+002,1.022537e+002
9.395873e+002,1.032710e+002
9.405516e+002,1.041721e+002
9.415158e+002,1.052969e+002
9.424800e+002,1.062776e+002
9.434443e+002,1.064130e+002
9.444085e+002,1.068953e+002
9.453727e+002,1.090708e+002
9.463370e+002,1.125295e+002
9.473012e+002,1.154090e+002
9.482654e+002,1.158046e+002
9.492297e+002,1.140628e+002
9.501939e+002,1.128753e+002
9.511581e+002,1.126458e+002
9.521224e+002,1.128745e+002
9.530866e+002,1.129416e+002
9.540508e+002,1.131258e+002
9.550151e+002,1.146534e+002
9.559793e+002,1.185599e+002
9.569435e+002,1.203170e+002
9.579078e+002,1.189604e+002
9.588720e+002,1.171880e+002
9.598362e+002,1.157704e+002
9.608005e+002,1.149497e+002
9.617647e+002,1.150789e+002
9.627289e+002,1.166264e+002
9.636932e+002,1.187220e+002
9.646574e+002,1.194415e+002
9.656216e+002,1.190430e+002
9.665859e+002,1.187567e+002
9.675501e+002,1.192825e+002
9.685143e+002,1.204335e+002
9.694786e+002,1.214660e+002
9.704428e+002,1.220977e+002
9.714070e+002,1.237087e+002
9.723713e+002,1.256212e+002
9.733355e+002,1.278370e+002
9.742997e+002,1.312456e+002
9.752640e+002,1.355392e+002
9.762282e+002,1.394277e+002
9.771924e+002,1.418779e+002
9.781567e+002,1.437002e+002
9.791209e+002,1.461389e+002
9.800851e+002,1.489569e+002
9.810494e+002,1.519953e+002
9.820136e+002,1.552860e+002
9.829778e+002,1.585323e+002
9.839421e+002,1.610650e+002
9.849063e+002,1.624473e+002
9.858705e+002,1.629524e+002
9.868348e+002,1.620840e+002
9.877990e+002,1.625262e+002
9.887632e+002,1.658637e+002
9.897275e+002,1.704751e+002
9.906917e+002,1.736068e+002
9.916559e+002,1.740812e+002
9.926202e+002,1.729350e+002
9.935844e+002,1.713619e+002
9.945486e+002,1.695658e+002
9.955129e+002,1.671757e+002
9.964771e+002,1.645288e+002
9.974413e+002,1.625144e+002
9.984056e+002,1.618141e+002
9.993698e+002,1.621295e+002
1.000334e+003,1.627087e+002
1.001298e+003,1.638123e+002
1.002263e+003,1.651272e+002
1.003227e+003,1.670472e+002
1.004191e+003,1.688174e+002
1.005155e+003,1.691675e+002
1.006119e+003,1.678315e+002
1.007084e+003,1.671370e+002
1.008048e+003,1.691608e+002
1.009012e+003,1.720146e+002
1.009976e+003,1.739272e+002
1.010941e+003,1.753801e+002
1.011905e+003,1.784068e+002
1.012869e+003,1.840167e+002
1.013833e+003,1.898135e+002
1.014798e+003,1.897335e+002
1.015762e+003,1.819442e+002
1.016726e+003,1.787027e+002
1.017690e+003,1.824226e+002
1.018654e+003,1.882271e+002
1.019619e+003,1.927171e+002
1.020583e+003,1.959872e+002
1.021547e+003,1.996333e+002
1.022511e+003,2.041152e+002
1.023476e+003,2.084803e+002
1.024440e+003,2.128885e+002
1.025404e+003,2.172056e+002
1.026368e+003,2.214014e+002
1.027333e+003,2.253047e+002
1.028297e+003,2.284285e+002
1.029261e+003,2.299072e+002
1.030225e+003,2.297696e+002
1.031190e+003,2.313671e+002
1.032154e+003,2.354493e+002
1.033118e+003,2.405213e+002
1.034082e+003,2.465143e+002
1.035047e+003,2.525153e+002
1.036011e+003,2.564587e+002
1.036975e+003,2.574154e+002
1.037939e+003,2.584894e+002
1.038903e+003,2.609979e+002
1.039868e+003,2.646739e+002
1.040832e+003,2.698338e+002
1.041796e+003,2.755745e+002
1.042760e+003,2.800775e+002
1.043725e+003,2.822364e+002
1.044689e+003,2.834117e+002
1.045653e+003,2.873569e+002
1.046617e+003,2.939348e+002
1.047582e+003,2.998797e+002
1.048546e+003,3.056425e+002
1.049510e+003,3.107142e+002
1.050474e+003,3.133996e+002
1.051438e+003,3.134897e+002
1.052403e+003,3.156691e+002
1.053367e+003,3.223523e+002
1.054331e+003,3.285961e+002
1.055295e+003,3.333052e+002
1.056260e+003,3.370332e+002
1.057224e+003,3.401655e+002
1.058188e+003,3.430314e+002
1.059152e+003,3.460208e+002
1.060117e+003,3.494250e+002
1.061081e+003,3.531943e+002
1.062045e+003,3.570129e+002
1.063009e+003,3.603621e+002
1.063974e+003,3.644139e+002
1.064938e+003,3.708075e+002
1.065902e+003,3.787399e+002
1.066866e+003,3.855510e+002
1.067830e+003,3.903448e+002
1.068795e+003,3.954067e+002
1.069759e+003,4.021931e+002
1.070723e+003,4.089198e+002
1.071687e+003,4.155605e+002
1.072652e+003,4.218251e+002
1.073616e+003,4.265430e+002
1.074580e+003,4.289297e+002
1.075544e+003,4.304769e+002
1.076509e+003,4.343608e+002
1.077473e+003,4.404794e+002
1.078437e+003,4.464033e+002
1.079401e+003,4.522513e+002
1.080365e+003,4.574523e+002
1.081330e+003,4.608704e+002
1.082294e+003,4.627513e+002
1.083258e+003,4.656476e+002
1.084222e+003,4.708577e+002
1.085187e+003,4.750948e+002
1.086151e+003,4.770460e+002
1.087115e+003,4.785720e+002
1.088079e+003,4.809441e+002
1.089043e+003,4.840685e+002
1.090008e+003,4.871606e+002
1.090972e+003,4.897411e+002
1.091936e+003,4.916676e+002
1.092900e+003,4.923265e+002
1.093865e+003,4.918400e+002
1.094829e+003,4.907487e+002
1.095793e+003,4.892503e+002
1.096757e+003,4.876686e+002
1.097722e+003,4.858456e+002
1.098686e+003,4.833986e+002
1.099650e+003,4.811818e+002
1.100614e+003,4.806111e+002
1.101578e+003,4.800540e+002
1.102543e+003,4.790705e+002
1.103507e+003,4.774565e+002
1.104471e+003,4.746913e+002
1.105435e+003,4.705071e+002
1.106400e+003,4.653456e+002
1.107364e+003,4.601949e+002
1.108328e+003,4.551762e+002
1.109292e+003,4.482149e+002
1.110257e+003,4.394072e+002
1.111221e+003,4.327697e+002
1.112185e+003,4.301364e+002
1.113149e+003,4.287917e+002
1.114114e+003,4.252319e+002
1.115078e+003,4.195002e+002
1.116042e+003,4.142372e+002
1.117006e+003,4.116926e+002
1.117970e+003,4.080235e+002
1.118935e+003,4.007751e+002
1.119899e+003,3.915833e+002
1.120863e+003,3.826989e+002
1.121827e+003,3.750920e+002
1.122792e+003,3.682050e+002
1.123756e+003,3.610334e+002
1.124720e+003,3.532318e+002
1.125684e+003,3.460033e+002
1.126649e+003,3.401034e+002
1.127613e+003,3.346099e+002
1.128577e+003,3.294169e+002
1.129541e+003,3.240495e+002
1.130505e+003,3.171733e+002
1.131470e+003,3.082167e+002
1.132434e+003,3.010979e+002
1.133398e+003,3.000927e+002
1.134362e+003,2.988560e+002
1.135327e+003,2.938469e+002
1.136291e+003,2.866848e+002
1.137255e+003,2.799342e+002
1.138219e+003,2.746889e+002
1.139184e+003,2.702928e+002
1.140148e+003,2.657238e+002
1.141112e+003,2.606392e+002
1.142076e+003,2.554560e+002
1.143041e+003,2.505100e+002
1.144005e+003,2.462657e+002
1.144969e+003,2.436460e+002
1.145933e+003,2.414043e+002
1.146897e+003,2.373289e+002
1.147862e+003,2.308925e+002
1.148826e+003,2.244734e+002
1.149790e+003,2.192769e+002
1.150754e+003,2.146983e+002
1.151719e+003,2.108390e+002
1.152683e+003,2.071958e+002
1.153647e+003,2.026519e+002
1.154611e+003,1.970197e+002
1.155576e+003,1.916658e+002
1.156540e+003,1.885168e+002
1.157504e+003,1.873343e+002
1.158468e+003,1.844399e+002
1.159432e+003,1.788790e+002
1.160397e+003,1.743043e+002
1.161361e+003,1.729513e+002
1.162325e+003,1.725032e+002
1.163289e+003,1.696287e+002
1.164254e+003,1.638569e+002
1.165218e+003,1.580351e+002
1.166182e+003,1.535627e+002
1.167146e+003,1.500802e+002
1.168111e+003,1.470948e+002
1.169075e+003,1.444821e+002
1.170039e+003,1.423120e+002
1.171003e+003,1.405647e+002
1.171968e+003,1.389175e+002
1.172932e+003,1.370871e+002
1.173896e+003,1.352361e+002
1.174860e+003,1.319663e+002
1.175824e+003,1.245857e+002
1.176789e+003,1.189694e+002
1.177753e+003,1.172494e+002
1.178717e+003,1.165233e+002
1.179681e+003,1.138419e+002
1.180646e+003,1.092907e+002
1.181610e+003,1.054973e+002
1.182574e+003,1.042283e+002
1.183538e+003,1.034395e+002
1.184503e+003,1.002102e+002
1.185467e+003,9.572095e+001
1.186431e+003,9.183096e+001
1.187395e+003,8.885714e+001
1.188359e+003,8.645075e+001
1.189324e+003,8.463168e+001
1.190288e+003,8.354484e+001
1.191252e+003,8.227798e+001
1.192216e+003,8.096789e+001
1.193181e+003,7.877087e+001
1.194145e+003,7.431072e+001
1.195109e+003,6.982955e+001
1.196073e+003,6.722574e+001
1.197038e+003,6.620846e+001
1.198002e+003,6.534174e+001
1.198966e+003,6.382869e+001
1.199930e+003,6.209358e+001
1.200895e+003,6.085882e+001
1.201859e+003,5.998170e+001
1.202823e+003,5.885402e+001
1.203787e+003,5.736169e+001
1.204751e+003,5.568228e+001
1.205716e+003,5.428201e+001
1.206680e+003,5.281484e+001
1.207644e+003,4.977336e+001
1.208608e+003,4.426825e+001
1.209573e+003,4.021690e+001
1.210537e+003,4.013168e+001
1.211501e+003,4.066788e+001
1.212465e+003,4.080325e+001
1.213430e+003,4.048933e+001
1.214394e+003,3.940303e+001
1.215358e+003,3.739131e+001
1.216322e+003,3.518999e+001
1.217286e+003,3.422029e+001
1.218251e+003,3.438778e+001
1.219215e+003,3.211218e+001
1.220179e+003,2.659799e+001
1.221143e+003,2.300388e+001
1.222108e+003,2.367037e+001
1.223072e+003,2.597613e+001
1.224036e+003,2.715564e+001
1.225000e+003,2.697143e+001
1.225965e+003,2.626022e+001
1.226929e+003,2.511497e+001
1.227893e+003,2.352573e+001
1.228857e+003,2.189918e+001
1.229822e+003,2.086922e+001
1.230786e+003,2.081637e+001
1.231750e+003,2.140015e+001
1.232714e+003,2.178683e+001
1.233678e+003,2.134664e+001
1.234643e+003,2.011652e+001
1.235607e+003,1.842484e+001
1.236571e+003,1.610148e+001
1.237535e+003,1.478963e+001
1.238500e+003,1.438763e+001
1.239464e+003,1.453864e+001
1.240428e+003,1.549206e+001
1.241392e+003,1.649332e+001
1.242357e+003,1.661571e+001
1.243321e+003,1.582005e+001
1.244285e+003,1.458974e+001
1.245249e+003,1.279001e+001
1.246214e+003,1.107938e+001
1.247178e+003,1.031043e+001
1.248142e+003,1.013889e+001
1.249106e+003,1.015305e+001
1.250070e+003,1.040102e+001
1.251035e+003,1.079105e+001
1.251999e+003,1.107335e+001
1.252963e+003,1.121341e+001
1.253927e+003,1.118695e+001
1.254892e+003,1.099660e+001
1.255856e+003,1.088361e+001
1.256820e+003,1.043998e+001
1.257784e+003,1.027819e+001
1.258749e+003,1.168681e+001
1.259713e+003,1.381564e+001
1.260677e+003,1.392435e+001
1.261641e+003,1.044651e+001
1.262605e+003,5.841026e+000
1.263570e+003,4.558144e+000
1.264534e+003,6.839523e+000
1.265498e+003,8.596222e+000
1.266462e+003,9.976616e+000
1.267427e+003,1.072247e+001
1.268391e+003,1.019017e+001
1.269355e+003,8.841263e+000
1.270319e+003,7.653770e+000
1.271284e+003,6.876480e+000
1.272248e+003,6.350815e+000
1.273212e+003,6.376221e+000
1.274176e+003,6.746399e+000
1.275141e+003,6.513405e+000
1.276105e+003,5.733696e+000
1.277069e+003,4.888298e+000
1.278033e+003,4.358307e+000
1.278997e+003,4.512444e+000
1.279962e+003,5.786011e+000
1.280926e+003,8.121803e+000
1.281890e+003,9.946175e+000
1.282854e+003,1.004567e+001
1.283819e+003,9.761719e+000
1.284783e+003,9.713470e+000
1.285747e+003,9.260475e+000
1.286711e+003,7.774200e+000
1.287676e+003,6.196716e+000
1.288640e+003,5.819717e+000
1.289604e+003,6.786209e+000
1.290568e+003,8.229301e+000
1.291532e+003,9.914925e+000
1.292497e+003,1.101020e+001
1.293461e+003,9.051071e+000
1.294425e+003,4.944893e+000
1.295389e+003,3.034012e+000
1.296354e+003,5.048218e+000
1.297318e+003,8.183250e+000
1.298282e+003,9.855621e+000
1.299246e+003,1.009853e+001
1.300211e+003,9.250412e+000
1.301175e+003,6.759338e+000
1.302139e+003,5.453598e+000
1.303103e+003,6.981400e+000
1.304068e+003,8.495331e+000
1.305032e+003,8.360931e+000
1.305996e+003,7.091629e+000
1.306960e+003,5.819977e+000
1.307924e+003,5.150787e+000
1.308889e+003,4.978333e+000
1.309853e+003,4.893768e+000
1.310817e+003,4.444489e+000
1.311781e+003,3.789932e+000
1.312746e+003,3.755295e+000
1.313710e+003,4.135666e+000
1.314674e+003,4.411240e+000
1.315638e+003,5.166641e+000
1.316603e+003,7.295425e+000
1.317567e+003,9.819717e+000
1.318531e+003,1.071428e+001
1.319495e+003,9.716309e+000
1.320459e+003,8.164917e+000
1.321424e+003,5.891632e+000
1.322388e+003,3.644089e+000
1.323352e+003,3.467270e+000
1.324316e+003,5.074127e+000
1.325281e+003,6.418259e+000
1.326245e+003,6.633240e+000
1.327209e+003,6.170883e+000
1.328173e+003,5.504578e+000
1.329138e+003,4.633011e+000
1.330102e+003,4.067749e+000
1.331066e+003,4.233795e+000
1.332030e+003,4.512863e+000
1.332995e+003,4.108307e+000
1.333959e+003,3.823929e+000
1.334923e+003,4.538971e+000
1.335887e+003,5.744888e+000
1.336851e+003,6.590393e+000
1.337816e+003,6.783463e+000
1.338780e+003,6.363663e+000
1.339744e+003,4.974792e+000
1.340708e+003,2.527603e+000
1.341673e+003,1.936966e+000
1.342637e+003,4.652588e+000
1.343601e+003,6.091522e+000
1.344565e+003,4.822128e+000
1.345530e+003,3.490631e+000
1.346494e+003,4.398376e+000
1.347458e+003,6.641190e+000
1.348422e+003,7.377625e+000
1.349386e+003,5.555161e+000
1.350351e+003,3.621521e+000
1.351315e+003,3.797287e+000
1.352279e+003,5.249359e+000
1.353243e+003,6.697311e+000
1.354208e+003,8.074875e+000
1.355172e+003,8.877289e+000
1.356136e+003,8.690536e+000
1.357100e+003,7.840073e+000
1.358065e+003,6.708405e+000
1.359029e+003,5.468567e+000
1.359993e+003,4.797562e+000
1.360957e+003,5.114075e+000
1.361922e+003,5.288666e+000
1.362886e+003,4.746933e+000
1.363850e+003,4.226044e+000
1.364814e+003,3.955154e+000
1.365778e+003,3.719513e+000
1.366743e+003,3.397049e+000
1.367707e+003,2.948364e+000
1.368671e+003,2.220718e+000
1.369635e+003,1.091568e+000
1.370600e+003,0.000000e+000
1.371564e+003,3.897095e-002
1.372528e+003,1.508881e+000
1.373492e+003,2.560074e+000
1.374457e+003,2.860870e+000
1.375421e+003,2.863205e+000
1.376385e+003,2.578339e+000
1.377349e+003,2.510986e+000
1.378313e+003,3.662735e+000
1.379278e+003,5.807999e+000
1.380242e+003,6.761826e+000
1.381206e+003,5.006287e+000
1.382170e+003,2.571838e+000
1.383135e+003,2.239716e+000
1.384099e+003,3.529785e+000
1.385063e+003,5.663635e+000
1.386027e+003,8.442535e+000
1.386992e+003,9.962708e+000
1.387956e+003,8.663818e+000
1.388920e+003,6.195724e+000
1.389884e+003,5.405655e+000
1.390849e+003,6.379425e+000
1.391813e+003,7.453629e+000
1.392777e+003,8.001266e+000
1.393741e+003,7.777939e+000
1.394705e+003,7.091293e+000
1.395670e+003,6.510574e+000
1.396634e+003,6.103180e+000
1.397598e+003,5.583649e+000
1.398562e+003,4.670609e+000
1.399527e+003,3.460114e+000
1.400491e+003,2.598541e+000
1.401455e+003,2.930679e+000
1.402419e+003,4.472504e+000
1.403384e+003,5.604416e+000
1.404348e+003,5.640350e+000
1.405312e+003,5.281006e+000
1.406276e+003,5.299744e+000
1.407240e+003,5.817261e+000
1.408205e+003,6.161896e+000
1.409169e+003,6.231598e+000
1.410133e+003,6.606903e+000
1.411097e+003,7.335205e+000
1.412062e+003,7.310013e+000
1.413026e+003,5.638260e+000
1.413990e+003,3.559860e+000
1.414954e+003,3.788467e+000
1.415919e+003,6.311539e+000
1.416883e+003,8.122986e+000
1.417847e+003,8.577164e+000
1.418811e+003,8.457733e+000
1.419776e+003,8.017105e+000
1.420740e+003,7.531219e+000
1.421704e+003,7.500351e+000
1.422668e+003,7.971954e+000
1.423632e+003,8.170166e+000
1.424597e+003,7.499771e+000
1.425561e+003,6.879410e+000
1.426525e+003,7.812057e+000
1.427489e+003,9.267029e+000
1.428454e+003,9.408203e+000
1.429418e+003,8.246307e+000
1.430382e+003,7.664734e+000
1.431346e+003,8.653442e+000
1.432311e+003,9.949692e+000
1.433275e+003,1.010773e+001
1.434239e+003,9.621048e+000
1.435203e+003,9.612305e+000
1.436167e+003,9.680695e+000
1.437132e+003,1.007248e+001
1.438096e+003,1.195613e+001
1.439060e+003,1.290900e+001
1.440024e+003,1.087750e+001
1.440989e+003,7.708923e+000
1.441953e+003,6.020721e+000
1.442917e+003,6.370773e+000
1.443881e+003,7.731735e+000
1.444846e+003,9.474030e+000
1.445810e+003,1.141161e+001
1.446774e+003,1.190636e+001
1.447738e+003,9.898651e+000
1.448703e+003,8.398972e+000
1.449667e+003,7.515076e+000
1.450631e+003,7.145065e+000
1.451595e+003,8.136673e+000
1.452559e+003,9.281403e+000
1.453524e+003,8.978409e+000
1.454488e+003,7.623932e+000
1.455452e+003,6.860779e+000
1.456416e+003,7.406784e+000
1.457381e+003,8.591461e+000
1.458345e+003,9.816132e+000
1.459309e+003,1.079552e+001
1.460273e+003,9.993973e+000
1.461238e+003,7.144821e+000
1.462202e+003,5.596527e+000
1.463166e+003,6.053497e+000
1.464130e+003,7.382736e+000
1.465094e+003,9.055054e+000
1.466059e+003,1.045163e+001
1.467023e+003,1.088857e+001
1.467987e+003,1.059608e+001
1.468951e+003,1.089247e+001
1.469916e+003,1.281613e+001
1.470880e+003,1.522296e+001
1.471844e+003,1.576488e+001
1.472808e+003,1.462044e+001
1.473773e+003,1.374258e+001
1.474737e+003,1.359024e+001
1.475701e+003,1.349580e+001
1.476665e+003,1.312930e+001
1.477630e+003,1.293112e+001
1.478594e+003,1.329457e+001
1.479558e+003,1.384019e+001
1.480522e+003,1.382683e+001
1.481486e+003,1.324570e+001
1.482451e+003,1.279279e+001
1.483415e+003,1.275258e+001
1.484379e+003,1.293140e+001
1.485343e+003,1.294485e+001
1.486308e+003,1.322752e+001
1.487272e+003,1.480260e+001
1.488236e+003,1.763063e+001
1.489200e+003,1.984036e+001
1.490165e+003,1.980795e+001
1.491129e+003,1.834955e+001
1.492093e+003,1.742953e+001
1.493057e+003,1.720328e+001
1.494021e+003,1.753413e+001
1.494986e+003,1.834781e+001
1.495950e+003,2.013371e+001
1.496914e+003,2.417691e+001
1.497878e+003,2.754419e+001
1.498843e+003,2.778149e+001
1.499807e+003,2.624438e+001
1.500771e+003,2.515121e+001
1.501735e+003,2.530205e+001
1.502700e+003,2.666270e+001
1.503664e+003,2.929695e+001
1.504628e+003,3.219724e+001
1.505592e+003,3.225192e+001
1.506557e+003,2.852138e+001
1.507521e+003,2.655356e+001
1.508485e+003,2.718253e+001
1.509449e+003,2.806941e+001
1.510413e+003,2.916191e+001
1.511378e+003,2.986986e+001
1.512342e+003,3.036386e+001
1.513306e+003,3.022266e+001
1.514270e+003,2.790565e+001
1.515235e+003,2.334363e+001
1.516199e+003,1.940329e+001
1.517163e+003,1.899632e+001
1.518127e+003,2.124608e+001
1.519092e+003,2.311403e+001
1.520056e+003,2.475731e+001
1.521020e+003,2.451926e+001
1.521984e+003,2.021675e+001
1.522948e+003,1.724820e+001
1.523913e+003,1.847380e+001
1.524877e+003,2.078334e+001
1.525841e+003,2.089781e+001
1.526805e+003,1.948289e+001
1.527770e+003,1.919913e+001
1.528734e+003,2.067513e+001
1.529698e+003,2.193605e+001
1.530662e+003,2.155055e+001
1.531627e+003,2.000076e+001
1.532591e+003,1.780994e+001
1.533555e+003,1.482567e+001
1.534519e+003,1.355405e+001
1.535484e+003,1.532957e+001
1.536448e+003,1.697716e+001
1.537412e+003,1.715273e+001
1.538376e+003,1.656816e+001
1.539340e+003,1.591911e+001
1.540305e+003,1.543973e+001
1.541269e+003,1.537909e+001
1.542233e+003,1.561108e+001
1.543197e+003,1.496019e+001
1.544162e+003,1.235323e+001
1.545126e+003,8.937103e+000
1.546090e+003,6.912125e+000
1.547054e+003,6.756943e+000
1.548019e+003,8.588501e+000
1.548983e+003,1.246191e+001
1.549947e+003,1.549496e+001
1.550911e+003,1.656006e+001
1.551875e+003,1.631578e+001
1.552840e+003,1.558279e+001
1.553804e+003,1.463634e+001
1.554768e+003,1.297571e+001
1.555732e+003,1.008354e+001
1.556697e+003,7.937149e+000
1.557661e+003,8.267532e+000
1.558625e+003,9.529602e+000
1.559589e+003,9.433990e+000
1.560554e+003,8.559189e+000
1.561518e+003,8.303436e+000
1.562482e+003,8.823669e+000
1.563446e+003,9.208267e+000
1.564411e+003,8.656433e+000
1.565375e+003,8.349045e+000
1.566339e+003,1.017468e+001
1.567303e+003,1.328149e+001
1.568267e+003,1.454210e+001
1.569232e+003,1.337868e+001
1.570196e+003,1.165356e+001
1.571160e+003,9.734253e+000
1.572124e+003,8.249344e+000
1.573089e+003,8.246124e+000
1.574053e+003,9.340591e+000
1.575017e+003,1.090678e+001
1.575981e+003,1.265752e+001
1.576946e+003,1.365117e+001
1.577910e+003,1.308797e+001
1.578874e+003,1.181120e+001
1.579838e+003,1.106937e+001
1.580802e+003,1.111078e+001
1.581767e+003,1.159250e+001
1.582731e+003,1.215724e+001
1.583695e+003,1.212433e+001
1.584659e+003,1.092171e+001
1.585624e+003,9.809601e+000
1.586588e+003,1.121010e+001
1.587552e+003,1.306310e+001
1.588516e+003,1.169945e+001
1.589481e+003,7.960663e+000
1.590445e+003,6.692078e+000
1.591409e+003,9.767715e+000
1.592373e+003,1.326123e+001
1.593338e+003,1.337425e+001
1.594302e+003,1.156071e+001
1.595266e+003,1.144127e+001
1.596230e+003,1.303061e+001
1.597194e+003,1.336411e+001
1.598159e+003,1.084477e+001
1.599123e+003,9.231277e+000
1.600087e+003,1.226323e+001
1.601051e+003,1.576634e+001
1.602016e+003,1.564316e+001
1.602980e+003,1.305591e+001
1.603944e+003,1.085431e+001
1.604908e+003,9.950485e+000
1.605873e+003,1.021164e+001
1.606837e+003,1.180069e+001
1.607801e+003,1.399185e+001
1.608765e+003,1.559882e+001
1.609729e+003,1.627113e+001
1.610694e+003,1.548915e+001
1.611658e+003,1.309276e+001
1.612622e+003,1.108081e+001
1.613586e+003,1.031172e+001
1.614551e+003,1.058592e+001
1.615515e+003,1.181793e+001
1.616479e+003,1.310481e+001
1.617443e+003,1.349675e+001
1.618408e+003,1.308487e+001
1.619372e+003,1.266214e+001
1.620336e+003,1.270381e+001
1.621300e+003,1.287340e+001
1.622265e+003,1.256769e+001
1.623229e+003,1.193126e+001
1.624193e+003,1.158377e+001
1.625157e+003,1.147141e+001
1.626121e+003,1.148918e+001
1.627086e+003,1.157381e+001
1.628050e+003,1.218057e+001
1.629014e+003,1.413907e+001
1.629978e+003,1.594551e+001
1.630943e+003,1.624167e+001
1.631907e+003,1.545226e+001
1.632871e+003,1.455106e+001
1.633835e+003,1.392735e+001
1.634800e+003,1.383569e+001
1.635764e+003,1.460307e+001
1.636728e+003,1.580806e+001
1.637692e+003,1.652101e+001
1.638656e+003,1.661916e+001
1.639621e+003,1.695122e+001
1.640585e+003,1.771919e+001
1.641549e+003,1.769739e+001
1.642513e+003,1.657805e+001
1.643478e+003,1.548676e+001
1.644442e+003,1.477094e+001
1.645406e+003,1.433696e+001
1.646370e+003,1.420705e+001
1.647335e+003,1.428320e+001
1.648299e+003,1.463092e+001
1.649263e+003,1.548622e+001
1.650227e+003,1.610866e+001
1.651192e+003,1.561147e+001
1.652156e+003,1.466801e+001
1.653120e+003,1.470087e+001
1.654084e+003,1.559282e+001
1.655048e+003,1.557986e+001
1.656013e+003,1.394412e+001
1.656977e+003,1.349803e+001
1.657941e+003,1.637135e+001
1.658905e+003,1.982590e+001
1.659870e+003,2.109872e+001
1.660834e+003,2.094453e+001
1.661798e+003,1.998965e+001
1.662762e+003,1.807658e+001
1.663727e+003,1.633182e+001
1.664691e+003,1.541229e+001
1.665655e+003,1.460175e+001
1.666619e+003,1.317511e+001
1.667583e+003,1.166499e+001
1.668548e+003,1.070450e+001
1.669512e+003,1.021658e+001
1.670476e+003,1.070667e+001
1.671440e+003,1.278218e+001
1.672405e+003,1.481653e+001
1.673369e+003,1.526836e+001
1.674333e+003,1.469165e+001
1.675297e+003,1.397682e+001
1.676262e+003,1.319926e+001
1.677226e+003,1.314827e+001
1.678190e+003,1.419905e+001
1.679154e+003,1.492987e+001
1.680119e+003,1.422330e+001
1.681083e+003,1.357225e+001
1.682047e+003,1.488974e+001
1.683011e+003,1.690668e+001
1.683975e+003,1.682784e+001
1.684940e+003,1.491377e+001
1.685904e+003,1.416702e+001
1.686868e+003,1.578459e+001
1.687832e+003,1.837126e+001
1.688797e+003,2.059047e+001
1.689761e+003,2.218541e+001
1.690725e+003,2.327592e+001
1.691689e+003,2.407938e+001
1.692654e+003,2.429845e+001
1.693618e+003,2.392041e+001
1.694582e+003,2.373705e+001
1.695546e+003,2.310005e+001
1.696510e+003,2.256264e+001
1.697475e+003,2.308186e+001
1.698439e+003,2.430118e+001
1.699403e+003,2.581110e+001
1.700367e+003,2.722118e+001
1.701332e+003,2.720920e+001
1.702296e+003,2.521140e+001
1.703260e+003,2.358414e+001
1.704224e+003,2.515016e+001
1.705189e+003,2.877414e+001
1.706153e+003,3.051987e+001
1.707117e+003,2.976453e+001
1.708081e+003,2.871597e+001
1.709046e+003,2.802567e+001
1.710010e+003,2.819913e+001
1.710974e+003,2.849406e+001
1.711938e+003,2.923132e+001
1.712902e+003,3.140495e+001
1.713867e+003,3.353500e+001
1.714831e+003,3.379532e+001
1.715795e+003,3.263205e+001
1.716759e+003,3.169489e+001
1.717724e+003,3.171555e+001
1.718688e+003,3.255446e+001
1.719652e+003,3.420770e+001
1.720616e+003,3.609883e+001
1.721581e+003,3.635109e+001
1.722545e+003,3.476471e+001
1.723509e+003,3.310481e+001
1.724473e+003,3.057071e+001
1.725438e+003,2.983856e+001
1.726402e+003,3.308568e+001
1.727366e+003,3.620024e+001
1.728330e+003,3.703722e+001
1.729294e+003,3.664429e+001
1.730259e+003,3.630667e+001
1.731223e+003,3.620985e+001
1.732187e+003,3.601184e+001
1.733151e+003,3.543274e+001
1.734116e+003,3.448244e+001
1.735080e+003,3.351927e+001
1.736044e+003,3.259315e+001
1.737008e+003,3.083112e+001
1.737973e+003,2.822337e+001
1.738937e+003,2.718495e+001
1.739901e+003,2.828358e+001
1.740865e+003,2.962329e+001
1.741829e+003,3.088248e+001
1.742794e+003,3.162718e+001
1.743758e+003,3.069669e+001
1.744722e+003,2.942932e+001
1.745686e+003,2.999208e+001
1.746651e+003,3.218825e+001
1.747615e+003,3.430016e+001
1.748579e+003,3.615540e+001
1.749543e+003,3.663530e+001
1.750508e+003,3.403496e+001
1.751472e+003,3.099065e+001
1.752436e+003,3.031750e+001
1.753400e+003,3.113150e+001
1.754365e+003,3.178755e+001
1.755329e+003,3.202295e+001
1.756293e+003,3.141931e+001
1.757257e+003,2.973543e+001
1.758221e+003,2.856363e+001
1.759186e+003,2.972810e+001
1.760150e+003,3.238042e+001
1.761114e+003,3.365314e+001
1.762078e+003,3.290558e+001
1.763043e+003,3.173837e+001
1.764007e+003,2.937975e+001
1.764971e+003,2.752814e+001
1.765935e+003,2.706149e+001
1.766900e+003,2.764423e+001
1.767864e+003,2.984215e+001
1.768828e+003,3.201250e+001
1.769792e+003,3.180707e+001
1.770756e+003,2.999379e+001
1.771721e+003,2.906242e+001
1.772685e+003,2.963297e+001
1.773649e+003,3.052640e+001
1.774613e+003,3.113211e+001
1.775578e+003,3.120598e+001
1.776542e+003,2.930804e+001
1.777506e+003,2.534094e+001
1.778470e+003,2.355051e+001
1.779435e+003,2.475243e+001
1.780399e+003,2.511748e+001
1.781363e+003,2.332498e+001
1.782327e+003,2.266844e+001
1.783292e+003,2.524901e+001
1.784256e+003,2.766513e+001
1.785220e+003,2.679266e+001
1.786184e+003,2.455792e+001
1.787148e+003,2.470074e+001
1.788113e+003,2.739113e+001
1.789077e+003,2.935104e+001
1.790041e+003,2.868440e+001
1.791005e+003,2.716876e+001
1.791970e+003,2.709515e+001
1.792934e+003,2.779124e+001
1.793898e+003,2.669705e+001
1.794862e+003,2.429582e+001
1.795827e+003,2.517052e+001
1.796791e+003,3.030228e+001
1.797755e+003,3.355241e+001
1.798719e+003,3.164769e+001
1.799683e+003,2.789737e+001
1.800648e+003,2.498492e+001
1.801612e+003,2.301314e+001
1.802576e+003,2.345280e+001
1.803540e+003,2.633517e+001
1.804505e+003,2.711722e+001
1.805469e+003,2.456546e+001
1.806433e+003,2.286034e+001
1.807397e+003,2.292293e+001
1.808362e+003,2.352032e+001
1.809326e+003,2.423387e+001
1.810290e+003,2.484076e+001
1.811254e+003,2.541331e+001
1.812219e+003,2.571237e+001
1.813183e+003,2.455247e+001
1.814147e+003,2.165936e+001
1.815111e+003,1.922910e+001
1.816075e+003,1.952924e+001
1.817040e+003,2.151099e+001
1.818004e+003,2.233514e+001
1.818968e+003,2.204750e+001
1.819932e+003,2.212718e+001
1.820897e+003,2.168460e+001
1.821861e+003,2.222717e+001
1.822825e+003,2.590663e+001
1.823789e+003,2.789760e+001
1.824754e+003,2.545866e+001
1.825718e+003,2.288330e+001
1.826682e+003,2.276031e+001
1.827646e+003,2.384453e+001
1.828610e+003,2.457251e+001
1.829575e+003,2.479242e+001
1.830539e+003,2.463280e+001
1.831503e+003,2.407727e+001
1.832467e+003,2.330269e+001
1.833432e+003,2.192035e+001
1.834396e+003,2.065829e+001
1.835360e+003,2.137389e+001
1.836324e+003,2.349529e+001
1.837289e+003,2.414185e+001
1.838253e+003,2.279318e+001
1.839217e+003,2.196284e+001
1.840181e+003,2.282434e+001
1.841146e+003,2.387996e+001
1.842110e+003,2.402785e+001
1.843074e+003,2.381725e+001
1.844038e+003,2.376143e+001
1.845002e+003,2.378865e+001
1.845967e+003,2.495178e+001
1.846931e+003,2.897397e+001
1.847895e+003,3.105069e+001
1.848859e+003,2.907631e+001
1.849824e+003,2.675163e+001
1.850788e+003,2.545789e+001
1.851752e+003,2.485802e+001
1.852716e+003,2.505283e+001
1.853681e+003,2.594925e+001
1.854645e+003,2.718503e+001
1.855609e+003,2.834686e+001
1.856573e+003,2.902341e+001
1.857537e+003,2.889729e+001
1.858502e+003,2.798402e+001
1.859466e+003,2.654532e+001
1.860430e+003,2.550662e+001
1.861394e+003,2.609193e+001
1.862359e+003,2.771123e+001
1.863323e+003,2.841026e+001
1.864287e+003,2.798703e+001
1.865251e+003,2.734174e+001
1.866216e+003,2.705835e+001
1.867180e+003,2.697430e+001
1.868144e+003,2.622427e+001
1.869108e+003,2.557703e+001
1.870073e+003,2.714635e+001
1.871037e+003,3.028409e+001
1.872001e+003,3.102654e+001
1.872965e+003,2.902074e+001
1.873929e+003,2.794362e+001
1.874894e+003,2.823442e+001
1.875858e+003,2.865257e+001
1.876822e+003,2.944022e+001
1.877786e+003,3.016486e+001
1.878751e+003,3.039455e+001
1.879715e+003,3.041747e+001
1.880679e+003,3.053568e+001
1.881643e+003,3.062808e+001
1.882608e+003,3.020467e+001
1.883572e+003,2.931219e+001
1.884536e+003,2.929388e+001
1.885500e+003,3.122585e+001
1.886464e+003,3.316032e+001
1.887429e+003,3.173199e+001
1.888393e+003,2.802521e+001
1.889357e+003,2.640196e+001
1.890321e+003,2.677924e+001
1.891286e+003,2.809865e+001
1.892250e+003,3.067729e+001
1.893214e+003,3.113258e+001
1.894178e+003,2.705611e+001
1.895143e+003,2.357808e+001
1.896107e+003,2.560429e+001
1.897071e+003,3.014056e+001
1.898035e+003,3.152287e+001
1.899000e+003,2.968356e+001
1.899964e+003,2.733810e+001
1.900928e+003,2.523508e+001
1.901892e+003,2.501715e+001
1.902856e+003,2.834688e+001
1.903821e+003,3.073062e+001
1.904785e+003,2.803839e+001
1.905749e+003,2.455484e+001
1.906713e+003,2.596286e+001
1.907678e+003,2.999275e+001
1.908642e+003,3.110143e+001
1.909606e+003,2.885950e+001
1.910570e+003,2.688577e+001
1.911535e+003,2.701674e+001
1.912499e+003,2.811928e+001
1.913463e+003,2.887288e+001
1.914427e+003,2.906114e+001
1.915391e+003,2.931512e+001
1.916356e+003,2.989667e+001
1.917320e+003,2.896733e+001
1.918284e+003,2.642979e+001
1.919248e+003,2.542174e+001
1.920213e+003,2.628122e+001
1.921177e+003,2.723802e+001
1.922141e+003,2.785480e+001
1.923105e+003,2.824828e+001
1.924070e+003,2.844679e+001
1.925034e+003,2.840456e+001
1.925998e+003,2.807631e+001
1.926962e+003,2.746927e+001
1.927927e+003,2.632805e+001
1.928891e+003,2.413864e+001
1.929855e+003,2.263905e+001
1.930819e+003,2.198599e+001
1.931783e+003,2.189377e+001
1.932748e+003,2.294287e+001
1.933712e+003,2.427023e+001
1.934676e+003,2.503450e+001
1.935640e+003,2.530255e+001
1.936605e+003,2.495529e+001
1.937569e+003,2.418819e+001
1.938533e+003,2.442812e+001
1.939497e+003,2.666885e+001
1.940462e+003,2.892436e+001
1.941426e+003,2.856314e+001
1.942390e+003,2.684358e+001
1.943354e+003,2.634956e+001
1.944318e+003,2.632222e+001
1.945283e+003,2.493456e+001
1.946247e+003,2.279639e+001
1.947211e+003,2.198676e+001
1.948175e+003,2.296867e+001
1.949140e+003,2.423332e+001
1.950104e+003,2.468561e+001
1.951068e+003,2.410184e+001
1.952032e+003,2.245667e+001
1.952997e+003,2.039197e+001
1.953961e+003,1.940465e+001
1.954925e+003,1.954976e+001
1.955889e+003,1.962398e+001
1.956854e+003,1.992281e+001
1.957818e+003,1.980820e+001
1.958782e+003,1.828076e+001
1.959746e+003,1.807823e+001
1.960710e+003,2.080667e+001
1.961675e+003,2.316489e+001
1.962639e+003,2.280246e+001
1.963603e+003,2.131116e+001
1.964567e+003,2.072983e+001
1.965532e+003,2.114597e+001
1.966496e+003,2.212807e+001
1.967460e+003,2.367630e+001
1.968424e+003,2.433183e+001
1.969389e+003,2.263339e+001
1.970353e+003,2.054395e+001
1.971317e+003,1.962225e+001
1.972281e+003,1.938487e+001
1.973245e+003,1.931276e+001
1.974210e+003,1.952615e+001
1.975174e+003,2.020175e+001
1.976138e+003,2.122632e+001
1.977102e+003,2.236848e+001
1.978067e+003,2.338684e+001
1.979031e+003,2.389818e+001
1.979995e+003,2.368909e+001
1.980959e+003,2.320906e+001
1.981924e+003,2.338896e+001
1.982888e+003,2.420296e+001
1.983852e+003,2.415950e+001
1.984816e+003,2.300343e+001
1.985781e+003,2.224106e+001
1.986745e+003,2.245781e+001
1.987709e+003,2.266080e+001
1.988673e+003,2.205054e+001
1.989637e+003,2.132912e+001
1.990602e+003,2.099902e+001
1.991566e+003,2.076476e+001
1.992530e+003,2.081517e+001
1.993494e+003,2.133710e+001
1.994459e+003,2.073331e+001
1.995423e+003,1.772375e+001
1.996387e+003,1.706456e+001
1.997351e+003,2.159103e+001
1.998316e+003,2.385352e+001
1.999280e+003,2.124500e+001
2.000244e+003,1.855693e+001
2.001208e+003,1.758217e+001
2.002172e+003,1.797694e+001
2.003137e+003,1.975349e+001
2.004101e+003,2.195244e+001
2.005065e+003,2.340851e+001
2.006029e+003,2.408250e+001
2.006994e+003,2.435603e+001
2.007958e+003,2.406529e+001
2.008922e+003,2.353525e+001
2.009886e+003,2.337007e+001
2.010851e+003,2.373508e+001
2.011815e+003,2.460930e+001
2.012779e+003,2.551027e+001
2.013743e+003,2.589763e+001
2.014708e+003,2.575676e+001
2.015672e+003,2.519157e+001
2.016636e+003,2.448822e+001
2.017600e+003,2.441158e+001
2.018564e+003,2.508612e+001
2.019529e+003,2.513394e+001
2.020493e+003,2.340282e+001
2.021457e+003,2.132317e+001
2.022421e+003,2.130409e+001
2.023386e+003,2.277524e+001
2.024350e+003,2.380997e+001
2.025314e+003,2.445795e+001
2.026278e+003,2.422629e+001
2.027243e+003,2.306917e+001
2.028207e+003,2.232808e+001
2.029171e+003,2.248581e+001
2.030135e+003,2.218010e+001
2.031099e+003,1.998964e+001
2.032064e+003,1.791882e+001
2.033028e+003,1.914447e+001
2.033992e+003,2.261884e+001
2.034956e+003,2.473720e+001
2.035921e+003,2.648351e+001
2.036885e+003,2.640463e+001
2.037849e+003,2.256471e+001
2.038813e+003,2.063857e+001
2.039778e+003,2.075327e+001
2.040742e+003,2.113074e+001
2.041706e+003,2.241061e+001
2.042670e+003,2.392769e+001
2.043635e+003,2.507257e+001
2.044599e+003,2.590317e+001
2.045563e+003,2.709421e+001
2.046527e+003,2.842415e+001
2.047491e+003,2.739909e+001
2.048456e+003,2.270667e+001
2.049420e+003,1.995866e+001
2.050384e+003,2.159712e+001
2.051348e+003,2.336087e+001
2.052313e+003,2.333217e+001
2.053277e+003,2.335405e+001
2.054241e+003,2.586163e+001
2.055205e+003,2.888055e+001
2.056170e+003,2.901248e+001
2.057134e+003,2.651219e+001
2.058098e+003,2.357941e+001
2.059062e+003,2.137772e+001
2.060027e+003,2.056639e+001
2.060991e+003,2.143457e+001
2.061955e+003,2.272411e+001
2.062919e+003,2.333211e+001
2.063884e+003,2.345589e+001
2.064848e+003,2.390192e+001
2.065812e+003,2.447800e+001
2.066776e+003,2.391112e+001
2.067740e+003,2.232321e+001
2.068705e+003,2.072412e+001
2.069669e+003,1.965889e+001
2.070633e+003,2.016096e+001
2.071597e+003,2.241771e+001
2.072562e+003,2.414923e+001
2.073526e+003,2.367426e+001
2.074490e+003,2.261613e+001
2.075454e+003,2.292238e+001
2.076418e+003,2.387384e+001
2.077383e+003,2.377769e+001
2.078347e+003,2.238734e+001
2.079311e+003,2.044510e+001
2.080275e+003,1.890633e+001
2.081240e+003,1.990866e+001
2.082204e+003,2.364806e+001
2.083168e+003,2.669096e+001
2.084132e+003,2.691982e+001
2.085096e+003,2.490736e+001
2.086061e+003,2.144118e+001
2.087025e+003,1.794818e+001
2.087989e+003,1.799879e+001
2.088953e+003,2.170221e+001
2.089918e+003,2.421617e+001
2.090882e+003,2.553767e+001
2.091846e+003,2.527284e+001
2.092810e+003,2.249976e+001
2.093775e+003,2.107436e+001
2.094739e+003,2.309665e+001
2.095703e+003,2.442744e+001
2.096667e+003,2.159166e+001
2.097632e+003,1.753362e+001
2.098596e+003,1.663292e+001
2.099560e+003,1.833650e+001
2.100524e+003,1.875432e+001
2.101489e+003,1.688216e+001
2.102453e+003,1.616412e+001
2.103417e+003,1.809956e+001
2.104381e+003,1.931412e+001
2.105345e+003,1.971861e+001
2.106310e+003,1.946663e+001
2.107274e+003,1.806850e+001
2.108238e+003,1.668471e+001
2.109202e+003,1.567252e+001
2.110167e+003,1.508310e+001
2.111131e+003,1.526820e+001
2.112095e+003,1.571899e+001
2.113059e+003,1.540765e+001
2.114023e+003,1.495482e+001
2.114988e+003,1.467433e+001
2.115952e+003,1.259282e+001
2.116916e+003,1.142606e+001
2.117880e+003,1.305743e+001
2.118845e+003,1.482448e+001
2.119809e+003,1.623538e+001
2.120773e+003,1.760162e+001
2.121737e+003,1.870230e+001
2.122702e+003,1.910933e+001
2.123666e+003,1.814986e+001
2.124630e+003,1.614035e+001
2.125594e+003,1.459056e+001
2.126559e+003,1.400862e+001
2.127523e+003,1.420215e+001
2.128487e+003,1.607886e+001
2.129451e+003,1.767133e+001
2.130416e+003,1.706673e+001
2.131380e+003,1.612163e+001
2.132344e+003,1.633432e+001
2.133308e+003,1.711610e+001
2.134272e+003,1.773764e+001
2.135237e+003,1.793777e+001
2.136201e+003,1.806262e+001
2.137165e+003,1.810410e+001
2.138129e+003,1.713333e+001
2.139094e+003,1.493701e+001
2.140058e+003,1.311142e+001
2.141022e+003,1.209007e+001
2.141986e+003,1.182101e+001
2.142950e+003,1.342784e+001
2.143915e+003,1.522668e+001
2.144879e+003,1.510608e+001
2.145843e+003,1.379160e+001
2.146807e+003,1.257889e+001
2.147772e+003,1.186014e+001
2.148736e+003,1.106209e+001
2.149700e+003,1.014426e+001
2.150664e+003,1.080081e+001
2.151629e+003,1.364172e+001
2.152593e+003,1.497824e+001
2.153557e+003,1.137918e+001
2.154521e+003,7.492752e+000
2.155486e+003,8.670502e+000
2.156450e+003,1.193547e+001
2.157414e+003,1.387753e+001
2.158378e+003,1.466418e+001
2.159343e+003,1.459692e+001
2.160307e+003,1.385504e+001
2.161271e+003,1.221298e+001
2.162235e+003,9.947128e+000
2.163199e+003,8.656601e+000
2.164164e+003,9.070816e+000
2.165128e+003,9.757599e+000
2.166092e+003,9.443268e+000
2.167056e+003,9.236710e+000
2.168021e+003,1.090395e+001
2.168985e+003,1.281161e+001
2.169949e+003,1.240016e+001
2.170913e+003,1.047948e+001
2.171877e+003,8.431915e+000
2.172842e+003,6.795990e+000
2.173806e+003,5.926819e+000
2.174770e+003,5.798904e+000
2.175734e+003,6.690613e+000
2.176699e+003,8.572235e+000
2.177663e+003,1.003667e+001
2.178627e+003,9.931747e+000
2.179591e+003,9.402725e+000
2.180556e+003,1.008479e+001
2.181520e+003,1.106027e+001
2.182484e+003,1.079407e+001
2.183448e+003,9.724640e+000
2.184413e+003,8.004959e+000
2.185377e+003,6.113159e+000
2.186341e+003,6.052521e+000
2.187305e+003,7.765793e+000
2.188270e+003,8.796280e+000
2.189234e+003,8.296127e+000
2.190198e+003,7.905090e+000
2.191162e+003,8.662109e+000
2.192126e+003,9.043243e+000
2.193091e+003,6.853302e+000
2.194055e+003,3.866486e+000
2.195019e+003,4.295303e+000
2.195983e+003,7.016937e+000
2.196948e+003,8.375504e+000
2.197912e+003,8.228455e+000
2.198876e+003,7.002945e+000
2.199840e+003,5.069061e+000
2.200804e+003,4.407349e+000
2.201769e+003,5.590240e+000
2.202733e+003,6.376129e+000
2.203697e+003,5.317413e+000
2.204661e+003,4.322266e+000
2.205626e+003,6.013000e+000
2.206590e+003,8.784531e+000
2.207554e+003,9.081314e+000
2.208518e+003,7.355087e+000
2.209483e+003,4.994278e+000
2.210447e+003,2.736755e+000
2.211411e+003,2.396622e+000
2.212375e+003,3.755997e+000
2.213340e+003,4.436874e+000
2.214304e+003,3.898087e+000
2.215268e+003,4.266434e+000
2.216232e+003,6.628296e+000
2.217197e+003,9.071915e+000
2.218161e+003,1.003488e+001
2.219125e+003,9.938736e+000
2.220089e+003,9.441147e+000
2.221053e+003,8.604980e+000
2.222018e+003,5.821320e+000
2.222982e+003,1.965286e+000
2.223946e+003,1.372833e+000
2.224910e+003,3.736847e+000
2.225875e+003,4.523666e+000
2.226839e+003,2.779907e+000
2.227803e+003,1.452713e+000
2.228767e+003,1.944321e+000
2.229731e+003,2.944946e+000
2.230696e+003,3.562378e+000
2.231660e+003,3.867661e+000
2.232624e+003,3.992691e+000
2.233588e+003,4.418854e+000
2.234553e+003,5.927185e+000
2.235517e+003,7.508209e+000
2.236481e+003,6.834946e+000
2.237445e+003,4.378265e+000
2.238410e+003,2.242310e+000
2.239374e+003,1.297195e+000
2.240338e+003,2.098282e+000
2.241302e+003,4.459213e+000
2.242267e+003,6.203842e+000
2.243231e+003,5.877625e+000
2.244195e+003,4.717194e+000
2.245159e+003,3.195129e+000
2.246124e+003,1.944519e+000
2.247088e+003,2.110504e+000
2.248052e+003,2.761414e+000
2.249016e+003,2.922501e+000
2.249980e+003,2.856384e+000
2.250945e+003,3.211990e+000
2.251909e+003,3.833221e+000
2.252873e+003,3.412430e+000
2.253837e+003,1.802063e+000
2.254802e+003,1.148621e+000
2.255766e+003,2.716187e+000
2.256730e+003,4.429291e+000
2.257694e+003,4.784470e+000
2.258658e+003,4.356781e+000
2.259623e+003,2.505569e+000
2.260587e+003,1.291977e+000
2.261551e+003,4.180466e+000
2.262515e+003,7.762421e+000
2.263480e+003,7.076645e+000
2.264444e+003,4.154968e+000
2.265408e+003,3.169968e+000
2.266372e+003,4.179520e+000
2.267337e+003,5.108109e+000
2.268301e+003,5.474182e+000
2.269265e+003,6.009262e+000
2.270229e+003,8.339233e+000
2.271194e+003,1.010971e+001
2.272158e+003,8.197525e+000
2.273122e+003,5.714996e+000
2.274086e+003,4.648834e+000
2.275051e+003,4.307266e+000
2.276015e+003,4.744904e+000
2.276979e+003,5.591583e+000
2.277943e+003,5.868973e+000
2.278907e+003,5.798019e+000
2.279872e+003,6.509613e+000
2.280836e+003,7.841278e+000
2.281800e+003,8.303467e+000
2.282764e+003,7.573608e+000
2.283729e+003,7.383347e+000
2.284693e+003,9.021812e+000
2.285657e+003,1.040366e+001
2.286621e+003,9.408356e+000
2.287585e+003,8.389275e+000
2.288550e+003,1.017024e+001
2.289514e+003,1.181758e+001
2.290478e+003,9.614014e+000
2.291442e+003,6.202904e+000
2.292407e+003,6.166756e+000
2.293371e+003,8.535088e+000
2.294335e+003,8.906456e+000
2.295299e+003,6.575958e+000
2.296264e+003,6.018982e+000
2.297228e+003,9.002602e+000
2.298192e+003,9.975449e+000
2.299156e+003,7.336769e+000
2.300121e+003,6.570190e+000
2.301085e+003,9.655655e+000
2.302049e+003,1.225343e+001
2.303013e+003,1.188542e+001
2.303978e+003,1.091779e+001
2.304942e+003,1.177557e+001
2.305906e+003,1.348948e+001
2.306870e+003,1.399982e+001
2.307834e+003,1.355005e+001
2.308799e+003,1.476871e+001
2.309763e+003,1.811700e+001
2.310727e+003,1.947327e+001
2.311691e+003,1.825348e+001
2.312656e+003,1.848573e+001
2.313620e+003,2.099032e+001
2.314584e+003,2.166695e+001
2.315548e+003,1.897564e+001
2.316512e+003,1.691267e+001
2.317477e+003,1.846751e+001
2.318441e+003,2.230746e+001
2.319405e+003,2.664091e+001
2.320369e+003,3.037816e+001
2.321334e+003,2.973908e+001
2.322298e+003,2.683719e+001
2.323262e+003,3.192991e+001
2.324226e+003,4.223598e+001
2.325191e+003,4.606705e+001
2.326155e+003,4.383330e+001
2.327119e+003,4.204843e+001
2.328083e+003,4.191437e+001
2.329048e+003,4.148395e+001
2.330012e+003,4.033465e+001
2.330976e+003,3.909396e+001
2.331940e+003,3.747318e+001
2.332905e+003,3.626011e+001
2.333869e+003,3.719141e+001
2.334833e+003,3.916713e+001
2.335797e+003,4.190829e+001
2.336761e+003,4.421466e+001
2.337726e+003,4.358790e+001
2.338690e+003,4.141096e+001
2.339654e+003,3.956287e+001
2.340618e+003,3.905410e+001
2.341583e+003,4.161971e+001
2.342547e+003,4.649268e+001
2.343511e+003,4.929435e+001
2.344475e+003,4.854338e+001
2.345439e+003,4.883305e+001
2.346404e+003,5.273297e+001
2.347368e+003,5.585194e+001
2.348332e+003,5.738490e+001
2.349296e+003,5.818791e+001
2.350261e+003,5.689703e+001
2.351225e+003,5.708404e+001
2.352189e+003,6.173215e+001
2.353153e+003,6.757055e+001
2.354118e+003,7.164073e+001
2.355082e+003,7.406284e+001
2.356046e+003,7.538439e+001
2.357010e+003,7.609821e+001
2.357975e+003,7.708288e+001
2.358939e+003,7.779774e+001
2.359903e+003,8.083644e+001
2.360867e+003,8.715559e+001
2.361832e+003,8.972093e+001
2.362796e+003,8.728770e+001
2.363760e+003,8.612913e+001
2.364724e+003,8.850667e+001
2.365688e+003,9.240421e+001
2.366653e+003,9.604372e+001
2.367617e+003,9.902856e+001
2.368581e+003,1.015164e+002
2.369545e+003,1.037158e+002
2.370510e+003,1.057289e+002
2.371474e+003,1.079113e+002
2.372438e+003,1.113393e+002
2.373402e+003,1.152453e+002
2.374366e+003,1.162037e+002
2.375331e+003,1.150023e+002
2.376295e+003,1.155160e+002
2.377259e+003,1.181348e+002
2.378223e+003,1.217486e+002
2.379188e+003,1.255774e+002
2.380152e+003,1.278698e+002
2.381116e+003,1.279027e+002
2.382080e+003,1.282366e+002
2.383045e+003,1.310511e+002
2.384009e+003,1.338167e+002
2.384973e+003,1.341999e+002
2.385937e+003,1.338235e+002
2.386902e+003,1.345211e+002
2.387866e+003,1.356083e+002
2.388830e+003,1.349819e+002
2.389794e+003,1.337871e+002
2.390759e+003,1.346159e+002
2.391723e+003,1.365247e+002
2.392687e+003,1.367049e+002
2.393651e+003,1.355720e+002
2.394615e+003,1.367580e+002
2.395580e+003,1.416964e+002
2.396544e+003,1.440163e+002
2.397508e+003,1.400807e+002
2.398472e+003,1.377420e+002
2.399437e+003,1.397663e+002
2.400401e+003,1.414696e+002
2.401365e+003,1.402907e+002
2.402329e+003,1.400569e+002
2.403293e+003,1.435715e+002
2.404258e+003,1.477774e+002
2.405222e+003,1.495423e+002
2.406186e+003,1.503992e+002
2.407150e+003,1.532216e+002
2.408115e+003,1.573411e+002
2.409079e+003,1.594371e+002
2.410043e+003,1.595291e+002
2.411007e+003,1.584996e+002
2.411972e+003,1.567035e+002
2.412936e+003,1.568489e+002
2.413900e+003,1.587423e+002
2.414864e+003,1.600222e+002
2.415829e+003,1.603914e+002
2.416793e+003,1.607507e+002
2.417757e+003,1.612999e+002
2.418721e+003,1.616681e+002
2.419686e+003,1.617592e+002
2.420650e+003,1.617902e+002
2.421614e+003,1.616472e+002
2.422578e+003,1.616111e+002
2.423542e+003,1.615337e+002
2.424507e+003,1.619443e+002
2.425471e+003,1.652025e+002
2.426435e+003,1.686390e+002
2.427399e+003,1.666956e+002
2.428364e+003,1.621024e+002
2.429328e+003,1.628608e+002
2.430292e+003,1.684323e+002
2.431256e+003,1.693419e+002
2.432220e+003,1.632059e+002
2.433185e+003,1.596979e+002
2.434149e+003,1.619129e+002
2.435113e+003,1.623965e+002
2.436077e+003,1.600984e+002
2.437042e+003,1.580314e+002
2.438006e+003,1.565475e+002
2.438970e+003,1.559649e+002
2.439934e+003,1.565832e+002
2.440899e+003,1.579012e+002
2.441863e+003,1.600045e+002
2.442827e+003,1.614841e+002
2.443791e+003,1.597596e+002
2.444756e+003,1.556880e+002
2.445720e+003,1.521570e+002
2.446684e+003,1.492065e+002
2.447648e+003,1.471225e+002
2.448613e+003,1.456761e+002
2.449577e+003,1.434469e+002
2.450541e+003,1.408818e+002
2.451505e+003,1.401231e+002
2.452469e+003,1.410988e+002
2.453434e+003,1.420793e+002
2.454398e+003,1.418014e+002
2.455362e+003,1.389969e+002
2.456326e+003,1.338553e+002
2.457291e+003,1.301653e+002
2.458255e+003,1.296149e+002
2.459219e+003,1.302155e+002
2.460183e+003,1.311998e+002
2.461147e+003,1.314984e+002
2.462112e+003,1.317701e+002
2.463076e+003,1.316746e+002
2.464040e+003,1.293737e+002
2.465004e+003,1.264222e+002
2.465969e+003,1.260143e+002
2.466933e+003,1.270499e+002
2.467897e+003,1.259761e+002
2.468861e+003,1.228317e+002
2.469826e+003,1.216155e+002
2.470790e+003,1.229151e+002
2.471754e+003,1.219269e+002
2.472718e+003,1.187371e+002
2.473683e+003,1.164822e+002
2.474647e+003,1.148719e+002
2.475611e+003,1.146167e+002
2.476575e+003,1.161415e+002
2.477540e+003,1.168949e+002
2.478504e+003,1.156000e+002
2.479468e+003,1.134253e+002
2.480432e+003,1.112476e+002
2.481396e+003,1.095194e+002
2.482361e+003,1.089537e+002
2.483325e+003,1.092732e+002
2.484289e+003,1.094339e+002
2.485253e+003,1.097230e+002
2.486218e+003,1.120158e+002
2.487182e+003,1.135795e+002
2.488146e+003,1.104044e+002
2.489110e+003,1.058964e+002
2.490074e+003,1.052371e+002
2.491039e+003,1.075954e+002
2.492003e+003,1.090700e+002
2.492967e+003,1.087068e+002
2.493931e+003,1.083424e+002
2.494896e+003,1.091150e+002
2.495860e+003,1.081261e+002
2.496824e+003,1.045257e+002
2.497788e+003,1.029329e+002
2.498753e+003,1.039435e+002
2.499717e+003,1.041352e+002
2.500681e+003,1.027467e+002
2.501645e+003,1.012590e+002
2.502610e+003,1.001980e+002
2.503574e+003,9.973230e+001
2.504538e+003,1.003189e+002
2.505502e+003,1.014862e+002
2.506467e+003,1.021265e+002
2.507431e+003,1.022790e+002
2.508395e+003,1.028464e+002
2.509359e+003,1.033152e+002
2.510323e+003,1.023508e+002
2.511288e+003,1.010937e+002
2.512252e+003,1.011326e+002
2.513216e+003,1.019501e+002
2.514180e+003,1.027452e+002
2.515145e+003,1.033650e+002
2.516109e+003,1.035862e+002
2.517073e+003,1.033967e+002
2.518037e+003,1.034685e+002
2.519001e+003,1.042660e+002
2.519966e+003,1.035176e+002
2.520930e+003,9.978476e+001
2.521894e+003,9.903248e+001
2.522858e+003,1.028260e+002
2.523823e+003,1.046453e+002
2.524787e+003,1.025227e+002
2.525751e+003,1.012458e+002
2.526715e+003,1.030527e+002
2.527680e+003,1.050264e+002
2.528644e+003,1.050772e+002
2.529608e+003,1.040400e+002
2.530572e+003,1.020387e+002
2.531537e+003,9.992548e+001
2.532501e+003,9.979621e+001
2.533465e+003,1.004272e+002
2.534429e+003,1.005921e+002
2.535394e+003,1.005146e+002
2.536358e+003,9.918058e+001
2.537322e+003,9.794954e+001
2.538286e+003,1.002232e+002
2.539250e+003,1.041857e+002
2.540215e+003,1.049642e+002
2.541179e+003,1.023446e+002
2.542143e+003,9.941783e+001
2.543107e+003,9.664865e+001
2.544072e+003,9.565405e+001
2.545036e+003,9.628558e+001
2.546000e+003,9.699748e+001
2.546964e+003,9.772841e+001
2.547928e+003,9.746359e+001
2.548893e+003,9.596009e+001
2.549857e+003,9.489891e+001
2.550821e+003,9.506946e+001
2.551785e+003,9.621252e+001
2.552750e+003,9.809335e+001
2.553714e+003,9.908470e+001
2.554678e+003,9.748565e+001
2.555642e+003,9.558921e+001
2.556607e+003,9.524915e+001
2.557571e+003,9.514757e+001
2.558535e+003,9.450407e+001
2.559499e+003,9.361848e+001
2.560464e+003,9.327876e+001
2.561428e+003,9.341717e+001
2.562392e+003,9.368441e+001
2.563356e+003,9.330198e+001
2.564321e+003,9.115091e+001
2.565285e+003,8.804583e+001
2.566249e+003,8.600019e+001
2.567213e+003,8.465253e+001
2.568177e+003,8.359587e+001
2.569142e+003,8.291669e+001
2.570106e+003,8.314837e+001
2.571070e+003,8.443119e+001
2.572034e+003,8.460767e+001
2.572999e+003,8.350623e+001
2.573963e+003,8.116917e+001
2.574927e+003,7.786488e+001
2.575891e+003,7.645309e+001
2.576855e+003,7.783290e+001
2.577820e+003,7.889443e+001
2.578784e+003,7.861839e+001
2.579748e+003,7.821976e+001
2.580712e+003,7.811501e+001
2.581677e+003,7.815522e+001
2.582641e+003,7.725977e+001
2.583605e+003,7.654436e+001
2.584569e+003,7.810469e+001
2.585534e+003,7.874074e+001
2.586498e+003,7.620280e+001
2.587462e+003,7.265980e+001
2.588426e+003,6.980678e+001
2.589391e+003,6.808777e+001
2.590355e+003,6.903980e+001
2.591319e+003,7.129311e+001
2.592283e+003,6.972261e+001
2.593248e+003,6.604826e+001
2.594212e+003,6.569096e+001
2.595176e+003,6.709049e+001
2.596140e+003,6.638478e+001
2.597104e+003,6.430154e+001
2.598069e+003,6.316928e+001
2.599033e+003,6.290832e+001
2.599997e+003,6.259328e+001
2.600961e+003,6.210506e+001
2.601926e+003,6.072894e+001
2.602890e+003,5.761237e+001
2.603854e+003,5.655556e+001
2.604818e+003,5.839606e+001
2.605782e+003,6.015677e+001
2.606747e+003,6.253658e+001
2.607711e+003,6.291884e+001
2.608675e+003,6.054564e+001
2.609639e+003,5.811212e+001
2.610604e+003,5.669604e+001
2.611568e+003,5.626204e+001
2.612532e+003,5.670444e+001
2.613496e+003,5.831552e+001
2.614461e+003,6.176295e+001
2.615425e+003,6.381374e+001
2.616389e+003,5.990401e+001
2.617353e+003,5.531500e+001
2.618318e+003,5.439632e+001
2.619282e+003,5.489272e+001
2.620246e+003,5.650134e+001
2.621210e+003,5.803110e+001
2.622175e+003,5.667265e+001
2.623139e+003,5.442078e+001
2.624103e+003,5.419884e+001
2.625067e+003,5.474469e+001
2.626031e+003,5.431890e+001
2.626996e+003,5.392453e+001
2.627960e+003,5.387753e+001
2.628924e+003,5.351773e+001
2.629888e+003,5.231934e+001
2.630853e+003,5.061752e+001
2.631817e+003,5.053615e+001
2.632781e+003,5.245892e+001
2.633745e+003,5.435311e+001
2.634709e+003,5.492972e+001
2.635674e+003,5.436034e+001
2.636638e+003,5.304263e+001
2.637602e+003,5.162095e+001
2.638566e+003,5.104348e+001
2.639531e+003,5.119403e+001
2.640495e+003,5.084899e+001
2.641459e+003,5.100407e+001
2.642423e+003,5.239266e+001
2.643388e+003,5.341380e+001
2.644352e+003,5.358620e+001
2.645316e+003,5.260278e+001
2.646280e+003,5.033053e+001
2.647245e+003,4.828243e+001
2.648209e+003,4.792553e+001
2.649173e+003,4.888179e+001
2.650137e+003,5.016286e+001
2.651102e+003,5.149714e+001
2.652066e+003,5.215598e+001
2.653030e+003,5.203403e+001
2.653994e+003,5.322530e+001
2.654958e+003,5.352093e+001
2.655923e+003,5.011720e+001
2.656887e+003,4.638255e+001
2.657851e+003,4.389485e+001
2.658815e+003,4.235825e+001
2.659780e+003,4.224668e+001
2.660744e+003,4.291528e+001
2.661708e+003,4.297420e+001
2.662672e+003,4.277798e+001
2.663636e+003,4.318262e+001
2.664601e+003,4.383485e+001
2.665565e+003,4.382906e+001
2.666529e+003,4.329785e+001
2.667493e+003,4.237949e+001
2.668458e+003,4.136051e+001
2.669422e+003,3.996895e+001
2.670386e+003,3.834740e+001
2.671350e+003,3.825201e+001
2.672315e+003,4.017767e+001
2.673279e+003,4.158350e+001
2.674243e+003,4.153122e+001
2.675207e+003,4.131521e+001
2.676172e+003,4.140473e+001
2.677136e+003,3.939429e+001
2.678100e+003,3.540693e+001
2.679064e+003,3.368829e+001
2.680029e+003,3.420393e+001
2.680993e+003,3.623568e+001
2.681957e+003,3.930309e+001
2.682921e+003,3.974789e+001
2.683885e+003,3.619437e+001
2.684850e+003,3.383462e+001
2.685814e+003,3.664359e+001
2.686778e+003,3.869426e+001
2.687742e+003,3.582646e+001
2.688707e+003,3.326937e+001
2.689671e+003,3.066054e+001
2.690635e+003,2.984377e+001
2.691599e+003,3.315386e+001
2.692563e+003,3.438808e+001
2.693528e+003,3.050165e+001
2.694492e+003,2.699687e+001
2.695456e+003,2.765809e+001
2.696420e+003,2.932002e+001
2.697385e+003,2.866980e+001
2.698349e+003,2.778089e+001
2.699313e+003,2.985958e+001
2.700277e+003,3.242683e+001
2.701242e+003,3.280956e+001
2.702206e+003,3.186607e+001
2.703170e+003,3.038882e+001
2.704134e+003,2.866883e+001
2.705099e+003,2.658883e+001
2.706063e+003,2.544073e+001
2.707027e+003,2.664616e+001
2.707991e+003,2.859516e+001
2.708956e+003,2.810633e+001
2.709920e+003,2.555468e+001
2.710884e+003,2.285497e+001
2.711848e+003,2.083301e+001
2.712813e+003,2.130278e+001
2.713777e+003,2.330031e+001
2.714741e+003,2.427991e+001
2.715705e+003,2.377417e+001
2.716669e+003,2.311282e+001
2.717634e+003,2.290025e+001
2.718598e+003,2.338533e+001
2.719562e+003,2.456152e+001
2.720526e+003,2.326698e+001
2.721490e+003,1.806147e+001
2.722455e+003,1.664439e+001
2.723419e+003,2.001196e+001
2.724383e+003,2.027367e+001
2.725347e+003,1.787070e+001
2.726312e+003,1.692297e+001
2.727276e+003,1.707652e+001
2.728240e+003,1.775870e+001
2.729204e+003,1.906439e+001
2.730169e+003,1.820661e+001
2.731133e+003,1.421281e+001
2.732097e+003,1.357295e+001
2.733061e+003,1.970352e+001
2.734026e+003,2.259921e+001
2.734990e+003,2.218076e+001
2.735954e+003,2.143627e+001
2.736918e+003,1.934307e+001
2.737883e+003,1.720230e+001
2.738847e+003,1.498620e+001
2.739811e+003,1.396616e+001
2.740775e+003,1.456111e+001
2.741740e+003,1.519383e+001
2.742704e+003,1.552641e+001
2.743668e+003,1.510878e+001
2.744632e+003,1.236034e+001
2.745596e+003,1.089452e+001
2.746561e+003,1.235704e+001
2.747525e+003,1.355822e+001
2.748489e+003,1.598731e+001
2.749453e+003,1.647827e+001
2.750417e+003,1.370951e+001
2.751382e+003,1.230553e+001
2.752346e+003,1.395060e+001
2.753310e+003,1.566310e+001
2.754274e+003,1.540598e+001
2.755239e+003,1.403684e+001
2.756203e+003,1.232355e+001
2.757167e+003,1.088216e+001
2.758131e+003,1.012582e+001
2.759096e+003,9.694351e+000
2.760060e+003,9.561546e+000
2.761024e+003,9.902252e+000
2.761988e+003,1.104867e+001
2.762953e+003,1.228326e+001
2.763917e+003,1.333387e+001
2.764881e+003,1.363042e+001
2.765845e+003,1.252139e+001
2.766810e+003,1.086423e+001
2.767774e+003,1.018894e+001
2.768738e+003,1.022704e+001
2.769702e+003,1.008272e+001
2.770667e+003,1.026674e+001
2.771631e+003,1.100018e+001
2.772595e+003,1.088220e+001
2.773559e+003,9.326180e+000
2.774523e+003,8.109795e+000
2.775488e+003,9.508141e+000
2.776452e+003,1.188875e+001
2.777416e+003,1.124658e+001
2.778380e+003,8.170937e+000
2.779344e+003,9.711777e+000
2.780309e+003,1.465215e+001
2.781273e+003,1.309918e+001
2.782237e+003,9.801285e+000
2.783201e+003,1.218184e+001
2.784166e+003,1.479760e+001
2.785130e+003,1.298595e+001
2.786094e+003,9.480095e+000
2.787058e+003,7.416115e+000
2.788023e+003,7.149902e+000
2.788987e+003,7.396591e+000
2.789951e+003,7.957184e+000
2.790915e+003,1.051392e+001
2.791880e+003,1.438142e+001
2.792844e+003,1.357916e+001
2.793808e+003,1.021333e+001
2.794772e+003,1.032278e+001
2.795737e+003,1.159285e+001
2.796701e+003,1.102636e+001
2.797665e+003,9.647209e+000
2.798629e+003,8.601730e+000
2.799594e+003,8.548248e+000
2.800558e+003,1.021989e+001
2.801522e+003,1.274448e+001
2.802486e+003,1.308443e+001
2.803450e+003,1.062748e+001
2.804415e+003,1.008702e+001
2.805379e+003,1.127387e+001
2.806343e+003,1.221329e+001
2.807307e+003,1.367973e+001
2.808271e+003,1.190910e+001
2.809236e+003,7.193001e+000
2.810200e+003,6.496155e+000
2.811164e+003,1.005212e+001
2.812128e+003,1.107718e+001
2.813093e+003,9.009445e+000
2.814057e+003,1.010012e+001
2.815021e+003,1.309058e+001
2.815985e+003,1.302474e+001
2.816950e+003,1.173415e+001
2.817914e+003,1.021782e+001
2.818878e+003,8.206612e+000
2.819842e+003,7.458939e+000
2.820807e+003,8.210327e+000
2.821771e+003,8.641998e+000
2.822735e+003,8.093277e+000
2.823699e+003,8.852486e+000
2.824664e+003,1.210551e+001
2.825628e+003,1.195129e+001
2.826592e+003,7.241661e+000
2.827556e+003,6.096497e+000
2.828521e+003,7.738724e+000
2.829485e+003,8.827408e+000
2.830449e+003,9.483612e+000
2.831413e+003,7.620903e+000
2.832377e+003,3.884697e+000
2.833342e+003,3.645058e+000
2.834306e+003,7.308838e+000
2.835270e+003,9.381638e+000
2.836234e+003,8.286469e+000
2.837198e+003,6.978577e+000
2.838163e+003,5.603157e+000
2.839127e+003,5.523903e+000
2.840091e+003,6.833931e+000
2.841055e+003,7.501122e+000
2.842020e+003,7.249527e+000
2.842984e+003,8.546112e+000
2.843948e+003,1.119792e+001
2.844912e+003,1.169463e+001
2.845877e+003,9.621971e+000
2.846841e+003,7.532494e+000
2.847805e+003,6.059288e+000
2.848769e+003,4.866890e+000
2.849734e+003,3.306122e+000
2.850698e+003,3.676979e+000
2.851662e+003,6.283752e+000
2.852626e+003,6.289154e+000
2.853591e+003,3.985939e+000
2.854555e+003,3.367340e+000
2.855519e+003,4.528847e+000
2.856483e+003,5.097710e+000
2.857448e+003,4.486679e+000
2.858412e+003,3.857140e+000
2.859376e+003,3.970108e+000
2.860340e+003,4.366409e+000
2.861304e+003,4.569206e+000
2.862269e+003,5.429886e+000
2.863233e+003,6.550613e+000
2.864197e+003,7.102150e+000
2.865161e+003,7.712036e+000
2.866125e+003,8.187202e+000
2.867090e+003,8.091240e+000
2.868054e+003,7.757202e+000
2.869018e+003,7.247505e+000
2.869982e+003,6.417778e+000
2.870947e+003,6.055634e+000
2.871911e+003,5.354874e+000
2.872875e+003,2.770340e+000
2.873839e+003,1.240463e+000
2.874804e+003,1.041260e+000
2.875768e+003,1.152504e+000
2.876732e+003,1.527542e+000
2.877696e+003,2.412025e+000
2.878661e+003,3.527931e+000
2.879625e+003,3.616966e+000
2.880589e+003,2.645836e+000
2.881553e+003,2.939789e+000
2.882518e+003,5.475357e+000
2.883482e+003,6.886948e+000
2.884446e+003,6.903290e+000
2.885410e+003,6.052391e+000
2.886375e+003,4.473625e+000
2.887339e+003,5.928291e+000
2.888303e+003,9.698402e+000
2.889267e+003,1.076106e+001
2.890231e+003,9.096649e+000
2.891196e+003,8.221031e+000
2.892160e+003,8.847603e+000
2.893124e+003,9.699219e+000
2.894088e+003,1.062286e+001
2.895052e+003,1.135576e+001
2.896017e+003,1.187916e+001
2.896981e+003,1.255816e+001
2.897945e+003,1.330149e+001
2.898909e+003,1.346760e+001
2.899874e+003,1.309248e+001
2.900838e+003,1.206242e+001
2.901802e+003,1.095674e+001
2.902766e+003,1.149643e+001
2.903731e+003,1.375964e+001
2.904695e+003,1.591253e+001
2.905659e+003,1.789397e+001
2.906623e+003,1.859028e+001
2.907588e+003,1.813735e+001
2.908552e+003,1.897646e+001
2.909516e+003,2.077470e+001
2.910480e+003,2.186805e+001
2.911445e+003,2.273530e+001
2.912409e+003,2.585404e+001
2.913373e+003,2.987958e+001
2.914337e+003,2.974218e+001
2.915302e+003,2.610557e+001
2.916266e+003,2.492139e+001
2.917230e+003,2.603290e+001
2.918194e+003,2.806548e+001
2.919158e+003,3.044464e+001
2.920123e+003,2.998878e+001
2.921087e+003,2.822181e+001
2.922051e+003,2.823087e+001
2.923015e+003,2.986711e+001
2.923979e+003,3.313896e+001
2.924944e+003,3.668751e+001
2.925908e+003,3.747983e+001
2.926872e+003,3.652687e+001
2.927836e+003,3.709106e+001
2.928801e+003,3.864431e+001
2.929765e+003,3.829047e+001
2.930729e+003,3.756524e+001
2.931693e+003,4.067379e+001
2.932658e+003,4.482863e+001
2.933622e+003,4.636060e+001
2.934586e+003,4.573513e+001
2.935550e+003,4.221018e+001
2.936515e+003,3.941678e+001
2.937479e+003,4.293785e+001
2.938443e+003,4.909217e+001
2.939407e+003,4.950090e+001
2.940372e+003,4.659579e+001
2.941336e+003,4.394426e+001
2.942300e+003,4.281235e+001
2.943264e+003,4.619337e+001
2.944229e+003,5.037608e+001
2.945193e+003,5.194656e+001
2.946157e+003,5.201973e+001
2.947121e+003,5.126083e+001
2.948085e+003,5.083353e+001
2.949050e+003,5.215389e+001
2.950014e+003,5.424320e+001
2.950978e+003,5.623559e+001
2.951942e+003,5.725235e+001
2.952906e+003,5.509498e+001
2.953871e+003,5.313900e+001
2.954835e+003,5.441565e+001
2.955799e+003,5.586821e+001
2.956763e+003,5.568097e+001
2.957728e+003,5.596861e+001
2.958692e+003,5.816757e+001
2.959656e+003,5.977360e+001
2.960620e+003,5.836113e+001
2.961585e+003,5.704105e+001
2.962549e+003,5.946958e+001
2.963513e+003,6.189257e+001
2.964477e+003,6.155642e+001
2.965442e+003,6.223638e+001
2.966406e+003,6.578407e+001
2.967370e+003,6.760216e+001
2.968334e+003,6.610445e+001
2.969299e+003,6.496134e+001
2.970263e+003,6.597255e+001
2.971227e+003,6.766759e+001
2.972191e+003,6.935925e+001
2.973156e+003,7.017303e+001
2.974120e+003,6.862419e+001
2.975084e+003,6.822283e+001
2.976048e+003,6.966901e+001
2.977012e+003,7.102579e+001
2.977977e+003,7.198498e+001
2.978941e+003,7.190875e+001
2.979905e+003,7.104704e+001
2.980869e+003,7.234669e+001
2.981833e+003,7.623928e+001
2.982798e+003,7.700726e+001
2.983762e+003,7.177090e+001
2.984726e+003,6.995480e+001
2.985690e+003,7.299838e+001
2.986655e+003,7.458039e+001
2.987619e+003,7.464577e+001
2.988583e+003,7.532057e+001
2.989547e+003,7.664664e+001
2.990512e+003,7.759613e+001
2.991476e+003,7.826301e+001
2.992440e+003,8.007883e+001
2.993404e+003,8.277924e+001
2.994369e+003,8.258974e+001
2.995333e+003,7.969225e+001
2.996297e+003,8.052572e+001
2.997261e+003,8.394783e+001
2.998226e+003,8.159272e+001
2.999190e+003,7.684386e+001
3.000154e+003,7.870256e+001
3.001118e+003,8.392033e+001
3.002083e+003,8.550452e+001
3.003047e+003,8.464474e+001
3.004011e+003,8.546670e+001
3.004975e+003,8.695922e+001
3.005939e+003,8.661409e+001
3.006904e+003,8.513533e+001
3.007868e+003,8.367162e+001
3.008832e+003,8.312563e+001
3.009796e+003,8.578278e+001
3.010760e+003,8.901746e+001
3.011725e+003,9.015536e+001
3.012689e+003,9.040060e+001
3.013653e+003,9.071101e+001
3.014617e+003,9.111517e+001
3.015582e+003,9.164245e+001
3.016546e+003,9.227209e+001
3.017510e+003,9.291066e+001
3.018474e+003,9.377316e+001
3.019439e+003,9.563187e+001
3.020403e+003,9.694885e+001
3.021367e+003,9.605300e+001
3.022331e+003,9.601124e+001
3.023296e+003,9.809228e+001
3.024260e+003,9.858627e+001
3.025224e+003,9.586263e+001
3.026188e+003,9.476099e+001
3.027153e+003,9.840025e+001
3.028117e+003,1.022603e+002
3.029081e+003,1.038701e+002
3.030045e+003,1.048865e+002
3.031010e+003,1.053021e+002
3.031974e+003,1.062629e+002
3.032938e+003,1.079033e+002
3.033902e+003,1.091414e+002
3.034866e+003,1.097537e+002
3.035831e+003,1.097117e+002
3.036795e+003,1.092921e+002
3.037759e+003,1.101238e+002
3.038723e+003,1.127933e+002
3.039688e+003,1.142882e+002
3.040652e+003,1.144317e+002
3.041616e+003,1.137825e+002
3.042580e+003,1.125623e+002
3.043544e+003,1.117809e+002
3.044509e+003,1.117227e+002
3.045473e+003,1.134750e+002
3.046437e+003,1.158978e+002
3.047401e+003,1.156458e+002
3.048366e+003,1.139485e+002
3.049330e+003,1.148816e+002
3.050294e+003,1.177569e+002
3.051258e+003,1.205408e+002
3.052223e+003,1.228029e+002
3.053187e+003,1.234567e+002
3.054151e+003,1.230820e+002
3.055115e+003,1.210861e+002
3.056080e+003,1.200384e+002
3.057044e+003,1.230985e+002
3.058008e+003,1.267685e+002
3.058972e+003,1.279427e+002
3.059937e+003,1.286110e+002
3.060901e+003,1.316166e+002
3.061865e+003,1.338422e+002
3.062829e+003,1.305791e+002
3.063793e+003,1.272338e+002
3.064758e+003,1.265602e+002
3.065722e+003,1.273529e+002
3.066686e+003,1.294737e+002
3.067650e+003,1.316501e+002
3.068615e+003,1.333917e+002
3.069579e+003,1.351005e+002
3.070543e+003,1.369393e+002
3.071507e+003,1.373213e+002
3.072471e+003,1.346104e+002
3.073436e+003,1.330783e+002
3.074400e+003,1.330661e+002
3.075364e+003,1.357574e+002
3.076328e+003,1.409375e+002
3.077293e+003,1.422273e+002
3.078257e+003,1.399120e+002
3.079221e+003,1.390035e+002
3.080185e+003,1.401104e+002
3.081150e+003,1.406772e+002
3.082114e+003,1.405090e+002
3.083078e+003,1.421537e+002
3.084042e+003,1.453100e+002
3.085007e+003,1.450734e+002
3.085971e+003,1.428955e+002
3.086935e+003,1.429698e+002
3.087899e+003,1.442308e+002
3.088864e+003,1.448118e+002
3.089828e+003,1.450049e+002
3.090792e+003,1.456480e+002
3.091756e+003,1.460233e+002
3.092720e+003,1.449869e+002
3.093685e+003,1.438038e+002
3.094649e+003,1.447749e+002
3.095613e+003,1.466085e+002
3.096577e+003,1.488507e+002
3.097542e+003,1.500014e+002
3.098506e+003,1.480149e+002
3.099470e+003,1.463742e+002
3.100434e+003,1.462112e+002
3.101398e+003,1.474046e+002
3.102363e+003,1.497647e+002
3.103327e+003,1.504981e+002
3.104291e+003,1.473756e+002
3.105255e+003,1.460828e+002
3.106220e+003,1.516859e+002
3.107184e+003,1.540525e+002
3.108148e+003,1.519468e+002
3.109112e+003,1.525217e+002
3.110077e+003,1.559782e+002
3.111041e+003,1.573038e+002
3.112005e+003,1.562359e+002
3.112969e+003,1.558758e+002
3.113934e+003,1.567444e+002
3.114898e+003,1.573435e+002
3.115862e+003,1.576066e+002
3.116826e+003,1.575283e+002
3.117791e+003,1.574301e+002
3.118755e+003,1.593149e+002
3.119719e+003,1.619408e+002
3.120683e+003,1.630576e+002
3.121647e+003,1.633578e+002
3.122612e+003,1.643331e+002
3.123576e+003,1.647040e+002
3.124540e+003,1.627397e+002
3.125504e+003,1.609557e+002
3.126469e+003,1.634743e+002
3.127433e+003,1.667446e+002
3.128397e+003,1.665060e+002
3.129361e+003,1.654270e+002
3.130325e+003,1.637848e+002
3.131290e+003,1.644332e+002
3.132254e+003,1.686044e+002
3.133218e+003,1.716825e+002
3.134182e+003,1.719673e+002
3.135147e+003,1.720187e+002
3.136111e+003,1.730775e+002
3.137075e+003,1.743312e+002
3.138039e+003,1.759880e+002
3.139004e+003,1.758632e+002
3.139968e+003,1.736184e+002
3.140932e+003,1.728948e+002
3.141896e+003,1.738726e+002
3.142861e+003,1.770552e+002
3.143825e+003,1.809682e+002
3.144789e+003,1.813669e+002
3.145753e+003,1.791868e+002
3.146718e+003,1.794681e+002
3.147682e+003,1.814674e+002
3.148646e+003,1.822251e+002
3.149610e+003,1.822537e+002
3.150574e+003,1.827976e+002
3.151539e+003,1.837083e+002
3.152503e+003,1.847339e+002
3.153467e+003,1.862036e+002
3.154431e+003,1.889235e+002
3.155396e+003,1.906717e+002
3.156360e+003,1.898755e+002
3.157324e+003,1.887772e+002
3.158288e+003,1.893868e+002
3.159252e+003,1.898522e+002
3.160217e+003,1.881653e+002
3.161181e+003,1.871579e+002
3.162145e+003,1.871659e+002
3.163109e+003,1.891220e+002
3.164074e+003,1.930196e+002
3.165038e+003,1.960383e+002
3.166002e+003,1.975917e+002
3.166966e+003,1.985522e+002
3.167931e+003,1.991140e+002
3.168895e+003,1.980891e+002
3.169859e+003,1.956274e+002
3.170823e+003,1.982603e+002
3.171788e+003,2.044342e+002
3.172752e+003,2.047643e+002
3.173716e+003,2.017119e+002
3.174680e+003,1.987365e+002
3.175645e+003,1.973855e+002
3.176609e+003,2.009149e+002
3.177573e+003,2.043708e+002
3.178537e+003,2.025790e+002
3.179501e+003,1.997058e+002
3.180466e+003,2.016104e+002
3.181430e+003,2.045223e+002
3.182394e+003,2.046290e+002
3.183358e+003,2.046561e+002
3.184323e+003,2.060230e+002
3.185287e+003,2.068705e+002
3.186251e+003,2.067702e+002
3.187215e+003,2.057841e+002
3.188179e+003,2.041557e+002
3.189144e+003,2.031661e+002
3.190108e+003,2.032889e+002
3.191072e+003,2.048764e+002
3.192036e+003,2.085237e+002
3.193001e+003,2.088100e+002
3.193965e+003,2.063667e+002
3.194929e+003,2.057352e+002
3.195893e+003,2.065174e+002
3.196858e+003,2.076972e+002
3.197822e+003,2.085237e+002
3.198786e+003,2.073799e+002
3.199750e+003,2.060738e+002
3.200715e+003,2.072751e+002
3.201679e+003,2.096608e+002
3.202643e+003,2.112259e+002
3.203607e+003,2.121309e+002
3.204572e+003,2.114836e+002
3.205536e+003,2.120582e+002
3.206500e+003,2.163646e+002
3.207464e+003,2.178323e+002
3.208428e+003,2.144151e+002
3.209393e+003,2.121799e+002
3.210357e+003,2.135960e+002
3.211321e+003,2.148232e+002
3.212285e+003,2.141313e+002
3.213250e+003,2.139000e+002
3.214214e+003,2.144681e+002
3.215178e+003,2.140697e+002
3.216142e+003,2.131890e+002
3.217106e+003,2.150584e+002
3.218071e+003,2.182448e+002
3.219035e+003,2.187163e+002
3.219999e+003,2.177355e+002
3.220963e+003,2.188205e+002
3.221928e+003,2.209205e+002
3.222892e+003,2.222744e+002
3.223856e+003,2.227036e+002
3.224820e+003,2.204487e+002
3.225785e+003,2.191643e+002
3.226749e+003,2.238482e+002
3.227713e+003,2.269061e+002
3.228677e+003,2.253792e+002
3.229642e+003,2.232679e+002
3.230606e+003,2.223055e+002
3.231570e+003,2.235203e+002
3.232534e+003,2.273969e+002
3.233499e+003,2.297552e+002
3.234463e+003,2.284723e+002
3.235427e+003,2.286209e+002
3.236391e+003,2.300989e+002
3.237355e+003,2.299303e+002
3.238320e+003,2.287070e+002
3.239284e+003,2.278423e+002
3.240248e+003,2.282019e+002
3.241212e+003,2.324642e+002
3.242177e+003,2.373052e+002
3.243141e+003,2.378082e+002
3.244105e+003,2.359375e+002
3.245069e+003,2.350454e+002
3.246033e+003,2.342365e+002
3.246998e+003,2.310273e+002
3.247962e+003,2.303404e+002
3.248926e+003,2.353069e+002
3.249890e+003,2.394251e+002
3.250855e+003,2.407620e+002
3.251819e+003,2.413217e+002
3.252783e+003,2.420406e+002
3.253747e+003,2.437016e+002
3.254712e+003,2.470331e+002
3.255676e+003,2.461526e+002
3.256640e+003,2.405118e+002
3.257604e+003,2.426446e+002
3.258569e+003,2.494075e+002
3.259533e+003,2.506774e+002
3.260497e+003,2.478216e+002
3.261461e+003,2.426658e+002
3.262426e+003,2.390488e+002
3.263390e+003,2.413497e+002
3.264354e+003,2.465332e+002
3.265318e+003,2.511354e+002
3.266282e+003,2.537298e+002
3.267247e+003,2.509976e+002
3.268211e+003,2.486359e+002
3.269175e+003,2.484875e+002
3.270139e+003,2.513385e+002
3.271104e+003,2.571881e+002
3.272068e+003,2.603687e+002
3.273032e+003,2.597329e+002
3.273996e+003,2.588488e+002
3.274960e+003,2.588783e+002
3.275925e+003,2.606221e+002
3.276889e+003,2.639724e+002
3.277853e+003,2.657722e+002
3.278817e+003,2.663061e+002
3.279782e+003,2.660288e+002
3.280746e+003,2.653187e+002
3.281710e+003,2.643993e+002
3.282674e+003,2.634590e+002
3.283639e+003,2.623885e+002
3.284603e+003,2.628741e+002
3.285567e+003,2.669496e+002
3.286531e+003,2.701777e+002
3.287496e+003,2.669777e+002
3.288460e+003,2.652020e+002
3.289424e+003,2.676554e+002
3.290388e+003,2.679674e+002
3.291353e+003,2.657338e+002
3.292317e+003,2.649352e+002
3.293281e+003,2.660386e+002
3.294245e+003,2.674925e+002
3.295209e+003,2.691479e+002
3.296174e+003,2.720828e+002
3.297138e+003,2.754135e+002
3.298102e+003,2.749252e+002
3.299066e+003,2.725139e+002
3.300031e+003,2.703218e+002
3.300995e+003,2.699222e+002
3.301959e+003,2.747113e+002
3.302923e+003,2.787578e+002
3.303887e+003,2.795327e+002
3.304852e+003,2.785389e+002
3.305816e+003,2.766747e+002
3.306780e+003,2.757159e+002
3.307744e+003,2.768220e+002
3.308709e+003,2.784085e+002
3.309673e+003,2.803381e+002
3.310637e+003,2.829484e+002
3.311601e+003,2.854039e+002
3.312566e+003,2.829095e+002
3.313530e+003,2.783334e+002
3.314494e+003,2.793665e+002
3.315458e+003,2.834105e+002
3.316423e+003,2.852576e+002
3.317387e+003,2.859310e+002
3.318351e+003,2.872200e+002
3.319315e+003,2.883478e+002
3.320280e+003,2.880247e+002
3.321244e+003,2.881424e+002
3.322208e+003,2.894983e+002
3.323172e+003,2.908713e+002
3.324136e+003,2.918604e+002
3.325101e+003,2.912242e+002
3.326065e+003,2.891540e+002
3.327029e+003,2.903057e+002
3.327993e+003,2.956479e+002
3.328958e+003,2.956787e+002
3.329922e+003,2.916599e+002
3.330886e+003,2.938560e+002
3.331850e+003,2.983625e+002
3.332814e+003,2.977505e+002
3.333779e+003,2.959812e+002
3.334743e+003,2.975914e+002
3.335707e+003,2.992213e+002
3.336671e+003,2.983589e+002
3.337636e+003,2.978978e+002
3.338600e+003,3.004333e+002
3.339564e+003,3.031679e+002
3.340528e+003,3.051972e+002
3.341493e+003,3.061788e+002
3.342457e+003,3.061906e+002
3.343421e+003,3.073325e+002
3.344385e+003,3.094626e+002
3.345350e+003,3.120457e+002
3.346314e+003,3.137742e+002
3.347278e+003,3.113207e+002
3.348242e+003,3.075456e+002
3.349207e+003,3.091019e+002
3.350171e+003,3.128667e+002
3.351135e+003,3.146655e+002
3.352099e+003,3.153292e+002
3.353063e+003,3.143674e+002
3.354028e+003,3.147023e+002
3.354992e+003,3.170722e+002
3.355956e+003,3.200940e+002
3.356920e+003,3.229769e+002
3.357885e+003,3.237939e+002
3.358849e+003,3.218195e+002
3.359813e+003,3.220626e+002
3.360777e+003,3.244675e+002
3.361741e+003,3.245472e+002
3.362706e+003,3.231782e+002
3.363670e+003,3.213632e+002
3.364634e+003,3.202482e+002
3.365598e+003,3.208233e+002
3.366563e+003,3.233273e+002
3.367527e+003,3.282232e+002
3.368491e+003,3.309846e+002
3.369455e+003,3.269058e+002
3.370420e+003,3.241080e+002
3.371384e+003,3.281479e+002
3.372348e+003,3.308069e+002
3.373312e+003,3.318376e+002
3.374277e+003,3.332878e+002
3.375241e+003,3.347764e+002
3.376205e+003,3.338770e+002
3.377169e+003,3.316675e+002
3.378134e+003,3.312007e+002
3.379098e+003,3.322660e+002
3.380062e+003,3.350551e+002
3.381026e+003,3.375021e+002
3.381990e+003,3.355369e+002
3.382955e+003,3.339330e+002
3.383919e+003,3.352095e+002
3.384883e+003,3.378398e+002
3.385847e+003,3.412576e+002
3.386812e+003,3.405018e+002
3.387776e+003,3.353609e+002
3.388740e+003,3.336940e+002
3.389704e+003,3.372183e+002
3.390668e+003,3.401608e+002
3.391633e+003,3.423142e+002
3.392597e+003,3.418090e+002
3.393561e+003,3.403427e+002
3.394525e+003,3.404138e+002
3.395490e+003,3.409440e+002
3.396454e+003,3.411273e+002
3.397418e+003,3.405197e+002
3.398382e+003,3.389271e+002
3.399347e+003,3.400106e+002
3.400311e+003,3.468827e+002
3.401275e+003,3.505175e+002
3.402239e+003,3.486159e+002
3.403204e+003,3.467566e+002
3.404168e+003,3.454909e+002
3.405132e+003,3.479689e+002
3.406096e+003,3.514388e+002
3.407061e+003,3.488031e+002
3.408025e+003,3.452811e+002
3.408989e+003,3.473113e+002
3.409953e+003,3.516430e+002
3.410917e+003,3.551427e+002
3.411882e+003,3.568412e+002
3.412846e+003,3.545060e+002
3.413810e+003,3.533660e+002
3.414774e+003,3.542355e+002
3.415739e+003,3.538485e+002
3.416703e+003,3.522406e+002
3.417667e+003,3.516425e+002
3.418631e+003,3.524835e+002
3.419595e+003,3.547513e+002
3.420560e+003,3.573334e+002
3.421524e+003,3.573222e+002
3.422488e+003,3.559484e+002
3.423452e+003,3.545633e+002
3.424417e+003,3.537697e+002
3.425381e+003,3.543638e+002
3.426345e+003,3.540758e+002
3.427309e+003,3.524202e+002
3.428274e+003,3.521543e+002
3.429238e+003,3.539920e+002
3.430202e+003,3.555396e+002
3.431166e+003,3.562404e+002
3.432131e+003,3.555767e+002
3.433095e+003,3.543204e+002
3.434059e+003,3.564681e+002
3.435023e+003,3.597230e+002
3.435988e+003,3.605970e+002
3.436952e+003,3.617007e+002
3.437916e+003,3.648146e+002
3.438880e+003,3.681022e+002
3.439844e+003,3.704551e+002
3.440809e+003,3.707202e+002
3.441773e+003,3.672623e+002
3.442737e+003,3.660854e+002
3.443701e+003,3.675165e+002
3.444666e+003,3.679238e+002
3.445630e+003,3.676112e+002
3.446594e+003,3.682454e+002
3.447558e+003,3.684962e+002
3.448522e+003,3.655016e+002
3.449487e+003,3.634979e+002
3.450451e+003,3.667449e+002
3.451415e+003,3.718094e+002
3.452379e+003,3.772817e+002
3.453344e+003,3.790865e+002
3.454308e+003,3.748270e+002
3.455272e+003,3.744544e+002
3.456236e+003,3.780466e+002
3.457201e+003,3.814901e+002
3.458165e+003,3.838715e+002
3.459129e+003,3.844987e+002
3.460093e+003,3.843175e+002
3.461058e+003,3.848008e+002
3.462022e+003,3.856195e+002
3.462986e+003,3.856363e+002
3.463950e+003,3.866605e+002
3.464915e+003,3.914576e+002
3.465879e+003,3.943251e+002
3.466843e+003,3.944354e+002
3.467807e+003,3.939821e+002
3.468771e+003,3.937509e+002
3.469736e+003,3.945816e+002
3.470700e+003,3.962068e+002
3.471664e+003,3.963602e+002
3.472628e+003,3.960645e+002
3.473593e+003,3.991318e+002
3.474557e+003,4.027848e+002
3.475521e+003,4.041577e+002
3.476485e+003,4.044771e+002
3.477449e+003,4.042488e+002
3.478414e+003,4.037589e+002
3.479378e+003,4.031816e+002
3.480342e+003,4.029084e+002
3.481306e+003,4.031054e+002
3.482271e+003,4.037357e+002
3.483235e+003,4.048228e+002
3.484199e+003,4.072583e+002
3.485163e+003,4.100255e+002
3.486128e+003,4.117095e+002
3.487092e+003,4.123614e+002
3.488056e+003,4.119583e+002
3.489020e+003,4.119477e+002
3.489985e+003,4.131147e+002
3.490949e+003,4.161697e+002
3.491913e+003,4.221741e+002
3.492877e+003,4.239117e+002
3.493842e+003,4.208761e+002
3.494806e+003,4.204337e+002
3.495770e+003,4.219180e+002
3.496734e+003,4.245500e+002
3.497698e+003,4.261423e+002
3.498663e+003,4.239638e+002
3.499627e+003,4.218314e+002
3.500591e+003,0.000000e+000
