9.974011e+001,4.362153e+002
1.007043e+002,4.376760e+002
1.016686e+002,4.396679e+002
1.026328e+002,4.419219e+002
1.035970e+002,4.432907e+002
1.045613e+002,4.445520e+002
1.055255e+002,4.452793e+002
1.064897e+002,4.444777e+002
1.074540e+002,4.408496e+002
1.084182e+002,4.365079e+002
1.093824e+002,4.301533e+002
1.103467e+002,4.222961e+002
1.113109e+002,4.158597e+002
1.122751e+002,4.162917e+002
1.132394e+002,4.186972e+002
1.142036e+002,4.208835e+002
1.151678e+002,4.214406e+002
1.161321e+002,4.204469e+002
1.170963e+002,4.191851e+002
1.180605e+002,4.173854e+002
1.190248e+002,4.147122e+002
1.199890e+002,4.109359e+002
1.209532e+002,4.063294e+002
1.219175e+002,4.030316e+002
1.228817e+002,4.014021e+002
1.238459e+002,4.007225e+002
1.248102e+002,3.996063e+002
1.257744e+002,3.965451e+002
1.267386e+002,3.944522e+002
1.277029e+002,3.940048e+002
1.286671e+002,3.947002e+002
1.296313e+002,3.946619e+002
1.305956e+002,3.918001e+002
1.315598e+002,3.887192e+002
1.325240e+002,3.865913e+002
1.334883e+002,3.859948e+002
1.344525e+002,3.863882e+002
1.354167e+002,3.862225e+002
1.363810e+002,3.855397e+002
1.373452e+002,3.844195e+002
1.383094e+002,3.829534e+002
1.392737e+002,3.811341e+002
1.402379e+002,3.795997e+002
1.412021e+002,3.784166e+002
1.421664e+002,3.772415e+002
1.431306e+002,3.755842e+002
1.440948e+002,3.729606e+002
1.450591e+002,3.710477e+002
1.460233e+002,3.698785e+002
1.469875e+002,3.692398e+002
1.479518e+002,3.687125e+002
1.489160e+002,3.675979e+002
1.498802e+002,3.665851e+002
1.508445e+002,3.666209e+002
1.518087e+002,3.679392e+002
1.527729e+002,3.700121e+002
1.537372e+002,3.710586e+002
1.547014e+002,3.707591e+002
1.556656e+002,3.687668e+002
1.566299e+002,3.649637e+002
1.575941e+002,3.594508e+002
1.585583e+002,3.552730e+002
1.595226e+002,3.525886e+002
1.604868e+002,3.507262e+002
1.614510e+002,3.489241e+002
1.624153e+002,3.463773e+002
1.633795e+002,3.441870e+002
1.643438e+002,3.427231e+002
1.653080e+002,3.420953e+002
1.662722e+002,3.424585e+002
1.672365e+002,3.450195e+002
1.682007e+002,3.468888e+002
1.691649e+002,3.465502e+002
1.701292e+002,3.444588e+002
1.710934e+002,3.419805e+002
1.720576e+002,3.416841e+002
1.730219e+002,3.423724e+002
1.739861e+002,3.425562e+002
1.749503e+002,3.415298e+002
1.759146e+002,3.390344e+002
1.768788e+002,3.361660e+002
1.778430e+002,3.338474e+002
1.788073e+002,3.321064e+002
1.797715e+002,3.310685e+002
1.807357e+002,3.309196e+002
1.817000e+002,3.310786e+002
1.826642e+002,3.304111e+002
1.836284e+002,3.294947e+002
1.845927e+002,3.289770e+002
1.855569e+002,3.296687e+002
1.865211e+002,3.292675e+002
1.874854e+002,3.266671e+002
1.884496e+002,3.231863e+002
1.894138e+002,3.202831e+002
1.903781e+002,3.197241e+002
1.913423e+002,3.211570e+002
1.923065e+002,3.229970e+002
1.932708e+002,3.247954e+002
1.942350e+002,3.260147e+002
1.951992e+002,3.254619e+002
1.961635e+002,3.227035e+002
1.971277e+002,3.201668e+002
1.980919e+002,3.181423e+002
1.990562e+002,3.166646e+002
2.000204e+002,3.158712e+002
2.009846e+002,3.157240e+002
2.019489e+002,3.159712e+002
2.029131e+002,3.170220e+002
2.038773e+002,3.190081e+002
2.048416e+002,3.205394e+002
2.058058e+002,3.202321e+002
2.067700e+002,3.189636e+002
2.077343e+002,3.170020e+002
2.086985e+002,3.145634e+002
2.096627e+002,3.120304e+002
2.106270e+002,3.109234e+002
2.115912e+002,3.110061e+002
2.125554e+002,3.113939e+002
2.135197e+002,3.110145e+002
2.144839e+002,3.090429e+002
2.154481e+002,3.077331e+002
2.164124e+002,3.080370e+002
2.173766e+002,3.090314e+002
2.183408e+002,3.090673e+002
2.193051e+002,3.063975e+002
2.202693e+002,3.044116e+002
2.212335e+002,3.040937e+002
2.221978e+002,3.047997e+002
2.231620e+002,3.051639e+002
2.241262e+002,3.035097e+002
2.250904e+002,3.020813e+002
2.260547e+002,3.021508e+002
2.270189e+002,3.035913e+002
2.279831e+002,3.055018e+002
2.289474e+002,3.059741e+002
2.299116e+002,3.055636e+002
2.308758e+002,3.049289e+002
2.318401e+002,3.043241e+002
2.328043e+002,3.038406e+002
2.337685e+002,3.036802e+002
2.347328e+002,3.030147e+002
2.356970e+002,3.020811e+002
2.366612e+002,3.012132e+002
2.376255e+002,3.007487e+002
2.385897e+002,3.001484e+002
2.395539e+002,2.991132e+002
2.405182e+002,2.980588e+002
2.414824e+002,2.970920e+002
2.424466e+002,2.962190e+002
2.434109e+002,2.960691e+002
2.443751e+002,2.975835e+002
2.453393e+002,2.997905e+002
2.463036e+002,3.014771e+002
2.472678e+002,3.013979e+002
2.482320e+002,2.996867e+002
2.491963e+002,2.996242e+002
2.501605e+002,3.014370e+002
2.511247e+002,3.038240e+002
2.520890e+002,3.046953e+002
2.530532e+002,3.017540e+002
2.540174e+002,3.003892e+002
2.549817e+002,3.020292e+002
2.559459e+002,3.054826e+002
2.569102e+002,3.083661e+002
2.578744e+002,3.084657e+002
2.588386e+002,3.074682e+002
2.598029e+002,3.062755e+002
2.607671e+002,3.052872e+002
2.617313e+002,3.047562e+002
2.626956e+002,3.051664e+002
2.636598e+002,3.061044e+002
2.646240e+002,3.064832e+002
2.655883e+002,3.059504e+002
2.665525e+002,3.046967e+002
2.675167e+002,3.046733e+002
2.684810e+002,3.066141e+002
2.694452e+002,3.087348e+002
2.704094e+002,3.107804e+002
2.713737e+002,3.127671e+002
2.723379e+002,3.139933e+002
2.733021e+002,3.135598e+002
2.742664e+002,3.126570e+002
2.752306e+002,3.117625e+002
2.761948e+002,3.111027e+002
2.771591e+002,3.103986e+002
2.781233e+002,3.089886e+002
2.790875e+002,3.080525e+002
2.800518e+002,3.086493e+002
2.810160e+002,3.111746e+002
2.819802e+002,3.144574e+002
2.829445e+002,3.146521e+002
2.839087e+002,3.127895e+002
2.848729e+002,3.112110e+002
2.858372e+002,3.117937e+002
2.868014e+002,3.152205e+002
2.877656e+002,3.178945e+002
2.887299e+002,3.195247e+002
2.896941e+002,3.202216e+002
2.906583e+002,3.199931e+002
2.916226e+002,3.185415e+002
2.925868e+002,3.179783e+002
2.935510e+002,3.194124e+002
2.945153e+002,3.213393e+002
2.954795e+002,3.220500e+002
2.964437e+002,3.198064e+002
2.974080e+002,3.172239e+002
2.983722e+002,3.179473e+002
2.993364e+002,3.208139e+002
3.003007e+002,3.239199e+002
3.012649e+002,3.248644e+002
3.022291e+002,3.233729e+002
3.031934e+002,3.229954e+002
3.041576e+002,3.241062e+002
3.051218e+002,3.258521e+002
3.060861e+002,3.266653e+002
3.070503e+002,3.250055e+002
3.080145e+002,3.233703e+002
3.089788e+002,3.218291e+002
3.099430e+002,3.209387e+002
3.109072e+002,3.215710e+002
3.118715e+002,3.258710e+002
3.128357e+002,3.297717e+002
3.137999e+002,3.306858e+002
3.147642e+002,3.292441e+002
3.157284e+002,3.272163e+002
3.166926e+002,3.272898e+002
3.176569e+002,3.288041e+002
3.186211e+002,3.297732e+002
3.195853e+002,3.299593e+002
3.205496e+002,3.296295e+002
3.215138e+002,3.295770e+002
3.224780e+002,3.296194e+002
3.234423e+002,3.298720e+002
3.244065e+002,3.307996e+002
3.253707e+002,3.321667e+002
3.263350e+002,3.328388e+002
3.272992e+002,3.317804e+002
3.282634e+002,3.314973e+002
3.292277e+002,3.326480e+002
3.301919e+002,3.348729e+002
3.311561e+002,3.369431e+002
3.321204e+002,3.372178e+002
3.330846e+002,3.371410e+002
3.340488e+002,3.377361e+002
3.350131e+002,3.390125e+002
3.359773e+002,3.404329e+002
3.369415e+002,3.409685e+002
3.379058e+002,3.408914e+002
3.388700e+002,3.402019e+002
3.398342e+002,3.387377e+002
3.407985e+002,3.367724e+002
3.417627e+002,3.360638e+002
3.427269e+002,3.371354e+002
3.436912e+002,3.378756e+002
3.446554e+002,3.379043e+002
3.456196e+002,3.374989e+002
3.465839e+002,3.377175e+002
3.475481e+002,3.400584e+002
3.485123e+002,3.423734e+002
3.494765e+002,3.432255e+002
3.504408e+002,3.425688e+002
3.514050e+002,3.418011e+002
3.523692e+002,3.445366e+002
3.533335e+002,3.483192e+002
3.542977e+002,3.505063e+002
3.552619e+002,3.504269e+002
3.562262e+002,3.487253e+002
3.571904e+002,3.475970e+002
3.581546e+002,3.466997e+002
3.591189e+002,3.460350e+002
3.600831e+002,3.454044e+002
3.610473e+002,3.447523e+002
3.620116e+002,3.446653e+002
3.629758e+002,3.464494e+002
3.639400e+002,3.481181e+002
3.649043e+002,3.489897e+002
3.658685e+002,3.490611e+002
3.668327e+002,3.491371e+002
3.677970e+002,3.503676e+002
3.687612e+002,3.518205e+002
3.697254e+002,3.530621e+002
3.706897e+002,3.538964e+002
3.716539e+002,3.542725e+002
3.726181e+002,3.535289e+002
3.735824e+002,3.518172e+002
3.745466e+002,3.509221e+002
3.755108e+002,3.517180e+002
3.764751e+002,3.541152e+002
3.774393e+002,3.555065e+002
3.784035e+002,3.547798e+002
3.793678e+002,3.539578e+002
3.803320e+002,3.537267e+002
3.812962e+002,3.540547e+002
3.822605e+002,3.540022e+002
3.832247e+002,3.515744e+002
3.841889e+002,3.498922e+002
3.851532e+002,3.503219e+002
3.861174e+002,3.526837e+002
3.870816e+002,3.555510e+002
3.880459e+002,3.574703e+002
3.890101e+002,3.584855e+002
3.899743e+002,3.582934e+002
3.909386e+002,3.570471e+002
3.919028e+002,3.554466e+002
3.928670e+002,3.555444e+002
3.938313e+002,3.575408e+002
3.947955e+002,3.588353e+002
3.957597e+002,3.587953e+002
3.967240e+002,3.578061e+002
3.976882e+002,3.573494e+002
3.986524e+002,3.582753e+002
3.996167e+002,3.594767e+002
4.005809e+002,3.605889e+002
4.015451e+002,3.613974e+002
4.025094e+002,3.618442e+002
4.034736e+002,3.621463e+002
4.044378e+002,3.628040e+002
4.054021e+002,3.639139e+002
4.063663e+002,3.652137e+002
4.073305e+002,3.662883e+002
4.082948e+002,3.665820e+002
4.092590e+002,3.660577e+002
4.102232e+002,3.651042e+002
4.111875e+002,3.634199e+002
4.121517e+002,3.615874e+002
4.131159e+002,3.611944e+002
4.140802e+002,3.656663e+002
4.150444e+002,3.686365e+002
4.160086e+002,3.684494e+002
4.169729e+002,3.667257e+002
4.179371e+002,3.660611e+002
4.189013e+002,3.672285e+002
4.198656e+002,3.683416e+002
4.208298e+002,3.699234e+002
4.217940e+002,3.714015e+002
4.227583e+002,3.718435e+002
4.237225e+002,3.701080e+002
4.246867e+002,3.680244e+002
4.256510e+002,3.685927e+002
4.266152e+002,3.711630e+002
4.275794e+002,3.741068e+002
4.285437e+002,3.755707e+002
4.295079e+002,3.750551e+002
4.304721e+002,3.747513e+002
4.314364e+002,3.747653e+002
4.324006e+002,3.754640e+002
4.333648e+002,3.773515e+002
4.343291e+002,3.811024e+002
4.352933e+002,3.828246e+002
4.362575e+002,3.809516e+002
4.372218e+002,3.780358e+002
4.381860e+002,3.760898e+002
4.391502e+002,3.761994e+002
4.401145e+002,3.771662e+002
4.410787e+002,3.777774e+002
4.420429e+002,3.784247e+002
4.430072e+002,3.791598e+002
4.439714e+002,3.798728e+002
4.449356e+002,3.802806e+002
4.458999e+002,3.814626e+002
4.468641e+002,3.839516e+002
4.478283e+002,3.858954e+002
4.487926e+002,3.862582e+002
4.497568e+002,3.850474e+002
4.507210e+002,3.846050e+002
4.516853e+002,3.841315e+002
4.526495e+002,3.836660e+002
4.536137e+002,3.837468e+002
4.545780e+002,3.844626e+002
4.555422e+002,3.848386e+002
4.565064e+002,3.834844e+002
4.574707e+002,3.823150e+002
4.584349e+002,3.823522e+002
4.593991e+002,3.834866e+002
4.603634e+002,3.846905e+002
4.613276e+002,3.839988e+002
4.622918e+002,3.819557e+002
4.632561e+002,3.803924e+002
4.642203e+002,3.797194e+002
4.651845e+002,3.798102e+002
4.661488e+002,3.801722e+002
4.671130e+002,3.814330e+002
4.680772e+002,3.814404e+002
4.690415e+002,3.795043e+002
4.700057e+002,3.767234e+002
4.709699e+002,3.749739e+002
4.719342e+002,3.753762e+002
4.728984e+002,3.761612e+002
4.738626e+002,3.763873e+002
4.748269e+002,3.762929e+002
4.757911e+002,3.764489e+002
4.767553e+002,3.775492e+002
4.777196e+002,3.794567e+002
4.786838e+002,3.810758e+002
4.796480e+002,3.820001e+002
4.806123e+002,3.816130e+002
4.815765e+002,3.793324e+002
4.825407e+002,3.747547e+002
4.835050e+002,3.723712e+002
4.844692e+002,3.731846e+002
4.854334e+002,3.748099e+002
4.863977e+002,3.754492e+002
4.873619e+002,3.743981e+002
4.883261e+002,3.723904e+002
4.892904e+002,3.701170e+002
4.902546e+002,3.686154e+002
4.912188e+002,3.683711e+002
4.921831e+002,3.692349e+002
4.931473e+002,3.702403e+002
4.941115e+002,3.705533e+002
4.950758e+002,3.702199e+002
4.960400e+002,3.686221e+002
4.970042e+002,3.657503e+002
4.979685e+002,3.624705e+002
4.989327e+002,3.617979e+002
4.998969e+002,3.645627e+002
5.008612e+002,3.661498e+002
5.018254e+002,3.652858e+002
5.027896e+002,3.626117e+002
5.037539e+002,3.602469e+002
5.047181e+002,3.589488e+002
5.056823e+002,3.586815e+002
5.066466e+002,3.599078e+002
5.076108e+002,3.618957e+002
5.085750e+002,3.634377e+002
5.095393e+002,3.632013e+002
5.105035e+002,3.622612e+002
5.114677e+002,3.628735e+002
5.124320e+002,3.647768e+002
5.133962e+002,3.668456e+002
5.143605e+002,3.677841e+002
5.153247e+002,3.672680e+002
5.162889e+002,3.689446e+002
5.172532e+002,3.739812e+002
5.182174e+002,3.792132e+002
5.191816e+002,3.818729e+002
5.201459e+002,3.810014e+002
5.211101e+002,3.817917e+002
5.220743e+002,3.857090e+002
5.230386e+002,3.897604e+002
5.240028e+002,3.930834e+002
5.249670e+002,3.958995e+002
5.259313e+002,3.993579e+002
5.268955e+002,4.038726e+002
5.278597e+002,4.081619e+002
5.288240e+002,4.114106e+002
5.297882e+002,4.138133e+002
5.307524e+002,4.164138e+002
5.317167e+002,4.214122e+002
5.326809e+002,4.297390e+002
5.336451e+002,4.373493e+002
5.346094e+002,4.430089e+002
5.355736e+002,4.469796e+002
5.365378e+002,4.504533e+002
5.375021e+002,4.543922e+002
5.384663e+002,4.581432e+002
5.394305e+002,4.608753e+002
5.403948e+002,4.636151e+002
5.413590e+002,4.673566e+002
5.423232e+002,4.723883e+002
5.432875e+002,4.770284e+002
5.442517e+002,4.814976e+002
5.452159e+002,4.860189e+002
5.461802e+002,4.898134e+002
5.471444e+002,4.921512e+002
5.481086e+002,4.928659e+002
5.490729e+002,4.936909e+002
5.500371e+002,4.955004e+002
5.510013e+002,4.976229e+002
5.519656e+002,4.999331e+002
5.529298e+002,5.023138e+002
5.538940e+002,5.041350e+002
5.548583e+002,5.039940e+002
5.558225e+002,5.028079e+002
5.567867e+002,5.005721e+002
5.577510e+002,4.978460e+002
5.587152e+002,4.956219e+002
5.596794e+002,4.952363e+002
5.606437e+002,4.948870e+002
5.616079e+002,4.924056e+002
5.625721e+002,4.888268e+002
5.635364e+002,4.857961e+002
5.645006e+002,4.847007e+002
5.654648e+002,4.847011e+002
5.664291e+002,4.830826e+002
5.673933e+002,4.809207e+002
5.683575e+002,4.792088e+002
5.693218e+002,4.779300e+002
5.702860e+002,4.761963e+002
5.712502e+002,4.742274e+002
5.722145e+002,4.730778e+002
5.731787e+002,4.709377e+002
5.741429e+002,4.673763e+002
5.751072e+002,4.629782e+002
5.760714e+002,4.591806e+002
5.770356e+002,4.568825e+002
5.779999e+002,4.553398e+002
5.789641e+002,4.536478e+002
5.799283e+002,4.515501e+002
5.808926e+002,4.491178e+002
5.818568e+002,4.465988e+002
5.828210e+002,4.439170e+002
5.837853e+002,4.415186e+002
5.847495e+002,4.397572e+002
5.857137e+002,4.376775e+002
5.866780e+002,4.338954e+002
5.876422e+002,4.273680e+002
5.886064e+002,4.231555e+002
5.895707e+002,4.228423e+002
5.905349e+002,4.227915e+002
5.914991e+002,4.211253e+002
5.924634e+002,4.175175e+002
5.934276e+002,4.132418e+002
5.943918e+002,4.082759e+002
5.953560e+002,4.041576e+002
5.963203e+002,4.024002e+002
5.972845e+002,4.022097e+002
5.982487e+002,4.012573e+002
5.992130e+002,3.964865e+002
6.001772e+002,3.892170e+002
6.011414e+002,3.847644e+002
6.021057e+002,3.825607e+002
6.030699e+002,3.810395e+002
6.040341e+002,3.790501e+002
6.049984e+002,3.775242e+002
6.059626e+002,3.742257e+002
6.069268e+002,3.692973e+002
6.078911e+002,3.644346e+002
6.088553e+002,3.597571e+002
6.098195e+002,3.549102e+002
6.107838e+002,3.505831e+002
6.117480e+002,3.491165e+002
6.127122e+002,3.480701e+002
6.136765e+002,3.457600e+002
6.146407e+002,3.418887e+002
6.156049e+002,3.371192e+002
6.165692e+002,3.325952e+002
6.175334e+002,3.285867e+002
6.184976e+002,3.251239e+002
6.194619e+002,3.224814e+002
6.204261e+002,3.203748e+002
6.213903e+002,3.182046e+002
6.223546e+002,3.153466e+002
6.233188e+002,3.132165e+002
6.242830e+002,3.124406e+002
6.252473e+002,3.113724e+002
6.262115e+002,3.092338e+002
6.271757e+002,3.060041e+002
6.281400e+002,3.022186e+002
6.291042e+002,2.973033e+002
6.300684e+002,2.926707e+002
6.310327e+002,2.890836e+002
6.319969e+002,2.866103e+002
6.329611e+002,2.849415e+002
6.339254e+002,2.837240e+002
6.348896e+002,2.824542e+002
6.358538e+002,2.799533e+002
6.368181e+002,2.764054e+002
6.377823e+002,2.722236e+002
6.387465e+002,2.672413e+002
6.397108e+002,2.602733e+002
6.406750e+002,2.569526e+002
6.416392e+002,2.599638e+002
6.426035e+002,2.624066e+002
6.435677e+002,2.606195e+002
6.445319e+002,2.546687e+002
6.454962e+002,2.484413e+002
6.464604e+002,2.441828e+002
6.474246e+002,2.414646e+002
6.483889e+002,2.404779e+002
6.493531e+002,2.405383e+002
6.503173e+002,2.404982e+002
6.512816e+002,2.391785e+002
6.522458e+002,2.366710e+002
6.532100e+002,2.335689e+002
6.541743e+002,2.297701e+002
6.551385e+002,2.264959e+002
6.561027e+002,2.249500e+002
6.570670e+002,2.253992e+002
6.580312e+002,2.244242e+002
6.589954e+002,2.202317e+002
6.599597e+002,2.156617e+002
6.609239e+002,2.119811e+002
6.618881e+002,2.094326e+002
6.628524e+002,2.075462e+002
6.638166e+002,2.061156e+002
6.647808e+002,2.048627e+002
6.657451e+002,2.034221e+002
6.667093e+002,2.015477e+002
6.676735e+002,1.990203e+002
6.686378e+002,1.957274e+002
6.696020e+002,1.917251e+002
6.705662e+002,1.877432e+002
6.715305e+002,1.835052e+002
6.724947e+002,1.797737e+002
6.734589e+002,1.774981e+002
6.744232e+002,1.767776e+002
6.753874e+002,1.758782e+002
6.763516e+002,1.738979e+002
6.773159e+002,1.720730e+002
6.782801e+002,1.703007e+002
6.792443e+002,1.685329e+002
6.802086e+002,1.669307e+002
6.811728e+002,1.658518e+002
6.821370e+002,1.644034e+002
6.831013e+002,1.612646e+002
6.840655e+002,1.575200e+002
6.850297e+002,1.548963e+002
6.859940e+002,1.543390e+002
6.869582e+002,1.551803e+002
6.879224e+002,1.538367e+002
6.888867e+002,1.487231e+002
6.898509e+002,1.445204e+002
6.908151e+002,1.430198e+002
6.917794e+002,1.431999e+002
6.927436e+002,1.423371e+002
6.937078e+002,1.387409e+002
6.946721e+002,1.361045e+002
6.956363e+002,1.366484e+002
6.966005e+002,1.381418e+002
6.975648e+002,1.381859e+002
6.985290e+002,1.356095e+002
6.994932e+002,1.315585e+002
7.004575e+002,1.279380e+002
7.014217e+002,1.249634e+002
7.023859e+002,1.232724e+002
7.033502e+002,1.232078e+002
7.043144e+002,1.239542e+002
7.052786e+002,1.233471e+002
7.062429e+002,1.195309e+002
7.072071e+002,1.171158e+002
7.081713e+002,1.178257e+002
7.091356e+002,1.190432e+002
7.100998e+002,1.181982e+002
7.110640e+002,1.145415e+002
7.120283e+002,1.107869e+002
7.129925e+002,1.078729e+002
7.139567e+002,1.058185e+002
7.149210e+002,1.051077e+002
7.158852e+002,1.054711e+002
7.168494e+002,1.060856e+002
7.178137e+002,1.059985e+002
7.187779e+002,1.054748e+002
7.197421e+002,1.054562e+002
7.207064e+002,1.058464e+002
7.216706e+002,1.059486e+002
7.226348e+002,1.051920e+002
7.235991e+002,1.036088e+002
7.245633e+002,1.021833e+002
7.255275e+002,9.993275e+001
7.264918e+002,9.799533e+001
7.274560e+002,9.738889e+001
7.284202e+002,9.779061e+001
7.293845e+002,9.773181e+001
7.303487e+002,9.568275e+001
7.313129e+002,9.392800e+001
7.322772e+002,9.476777e+001
7.332414e+002,9.698935e+001
7.342056e+002,9.886967e+001
7.351699e+002,9.934135e+001
7.361341e+002,9.878188e+001
7.370983e+002,9.811515e+001
7.380626e+002,9.677519e+001
7.390268e+002,9.562125e+001
7.399910e+002,9.546607e+001
7.409553e+002,9.607626e+001
7.419195e+002,9.625405e+001
7.428837e+002,9.500214e+001
7.438480e+002,9.405210e+001
7.448122e+002,9.412883e+001
7.457764e+002,9.514219e+001
7.467407e+002,9.733852e+001
7.477049e+002,1.006589e+002
7.486691e+002,1.039895e+002
7.496334e+002,1.052130e+002
7.505976e+002,1.050808e+002
7.515618e+002,1.049723e+002
7.525261e+002,1.051999e+002
7.534903e+002,1.055574e+002
7.544545e+002,1.057231e+002
7.554188e+002,1.059319e+002
7.563830e+002,1.071064e+002
7.573472e+002,1.094107e+002
7.583115e+002,1.110031e+002
7.592757e+002,1.108996e+002
7.602399e+002,1.096104e+002
7.612042e+002,1.091185e+002
7.621684e+002,1.097179e+002
7.631326e+002,1.106725e+002
7.640969e+002,1.122057e+002
7.650611e+002,1.139437e+002
7.660253e+002,1.154104e+002
7.669896e+002,1.163931e+002
7.679538e+002,1.174797e+002
7.689180e+002,1.193475e+002
7.698823e+002,1.210892e+002
7.708465e+002,1.222131e+002
7.718107e+002,1.229720e+002
7.727750e+002,1.236943e+002
7.737392e+002,1.242971e+002
7.747034e+002,1.250748e+002
7.756677e+002,1.251299e+002
7.766319e+002,1.229900e+002
7.775961e+002,1.206837e+002
7.785604e+002,1.204030e+002
7.795246e+002,1.227266e+002
7.804888e+002,1.250664e+002
7.814531e+002,1.247426e+002
7.824173e+002,1.236872e+002
7.833815e+002,1.234513e+002
7.843458e+002,1.241862e+002
7.853100e+002,1.248982e+002
7.862742e+002,1.241195e+002
7.872385e+002,1.214330e+002
7.882027e+002,1.201949e+002
7.891669e+002,1.209341e+002
7.901312e+002,1.215005e+002
7.910954e+002,1.209907e+002
7.920596e+002,1.198844e+002
7.930239e+002,1.193833e+002
7.939881e+002,1.200698e+002
7.949523e+002,1.202812e+002
7.959166e+002,1.191149e+002
7.968808e+002,1.172150e+002
7.978450e+002,1.152060e+002
7.988093e+002,1.134377e+002
7.997735e+002,1.123920e+002
8.007377e+002,1.139257e+002
8.017020e+002,1.166795e+002
8.026662e+002,1.184578e+002
8.036304e+002,1.186022e+002
8.045947e+002,1.173303e+002
8.055589e+002,1.150028e+002
8.065231e+002,1.107816e+002
8.074874e+002,1.073167e+002
8.084516e+002,1.047956e+002
8.094158e+002,1.027068e+002
8.103801e+002,1.013738e+002
8.113443e+002,1.009104e+002
8.123085e+002,1.002044e+002
8.132728e+002,9.691119e+001
8.142370e+002,9.394350e+001
8.152012e+002,9.395889e+001
8.161655e+002,9.536855e+001
8.171297e+002,9.543096e+001
8.180939e+002,9.247554e+001
8.190582e+002,8.792422e+001
8.200224e+002,8.586988e+001
8.209866e+002,8.590830e+001
8.219509e+002,8.652935e+001
8.229151e+002,8.782970e+001
8.238793e+002,8.910830e+001
8.248436e+002,8.898357e+001
8.258078e+002,8.727276e+001
8.267720e+002,8.463757e+001
8.277363e+002,7.988308e+001
8.287005e+002,7.528294e+001
8.296647e+002,7.305522e+001
8.306290e+002,7.327866e+001
8.315932e+002,7.364654e+001
8.325574e+002,7.160493e+001
8.335217e+002,6.838788e+001
8.344859e+002,6.625255e+001
8.354501e+002,6.498261e+001
8.364144e+002,6.378541e+001
8.373786e+002,6.213599e+001
8.383428e+002,6.021244e+001
8.393071e+002,5.863103e+001
8.402713e+002,5.664476e+001
8.412355e+002,5.604251e+001
8.421998e+002,5.815204e+001
8.431640e+002,6.122029e+001
8.441282e+002,6.271931e+001
8.450925e+002,6.180980e+001
8.460567e+002,6.016016e+001
8.470209e+002,5.845039e+001
8.479852e+002,5.678296e+001
8.489494e+002,5.519364e+001
8.499136e+002,5.385314e+001
8.508779e+002,5.314263e+001
8.518421e+002,5.354221e+001
8.528063e+002,5.496533e+001
8.537706e+002,5.556477e+001
8.547348e+002,5.520520e+001
8.556990e+002,5.471476e+001
8.566633e+002,5.472021e+001
8.576275e+002,5.496424e+001
8.585917e+002,5.406536e+001
8.595560e+002,5.081570e+001
8.605202e+002,4.833964e+001
8.614844e+002,4.744352e+001
8.624487e+002,4.775527e+001
8.634129e+002,4.893107e+001
8.643771e+002,5.056060e+001
8.653414e+002,5.178557e+001
8.663056e+002,5.167281e+001
8.672698e+002,5.135643e+001
8.682341e+002,5.219926e+001
8.691983e+002,5.407339e+001
8.701625e+002,5.552802e+001
8.711268e+002,5.471254e+001
8.720910e+002,5.089924e+001
8.730552e+002,4.833593e+001
8.740195e+002,4.924696e+001
8.749837e+002,5.062478e+001
8.759479e+002,5.129091e+001
8.769122e+002,5.125481e+001
8.778764e+002,5.094868e+001
8.788406e+002,5.042567e+001
8.798049e+002,4.943432e+001
8.807691e+002,4.809298e+001
8.817333e+002,4.696641e+001
8.826976e+002,4.632352e+001
8.836618e+002,4.623701e+001
8.846260e+002,4.675473e+001
8.855903e+002,4.801976e+001
8.865545e+002,5.008213e+001
8.875187e+002,5.130371e+001
8.884830e+002,5.192281e+001
8.894472e+002,5.171896e+001
8.904114e+002,4.992378e+001
8.913757e+002,4.702030e+001
8.923399e+002,4.557689e+001
8.933041e+002,4.656431e+001
8.942684e+002,4.780977e+001
8.952326e+002,4.927476e+001
8.961968e+002,5.042601e+001
8.971611e+002,5.062333e+001
8.981253e+002,4.980867e+001
8.990895e+002,4.877206e+001
9.000538e+002,4.844748e+001
9.010180e+002,4.864589e+001
9.019822e+002,4.882279e+001
9.029465e+002,4.882677e+001
9.039107e+002,4.958317e+001
9.048749e+002,5.258712e+001
9.058392e+002,5.802390e+001
9.068034e+002,6.112126e+001
9.077676e+002,5.874484e+001
9.087319e+002,5.747864e+001
9.096961e+002,5.959493e+001
9.106603e+002,6.338899e+001
9.116246e+002,6.638153e+001
9.125888e+002,6.743722e+001
9.135530e+002,6.765311e+001
9.145173e+002,6.795627e+001
9.154815e+002,6.835987e+001
9.164457e+002,6.957687e+001
9.174100e+002,7.191965e+001
9.183742e+002,7.467818e+001
9.193384e+002,7.681694e+001
9.203027e+002,7.822424e+001
9.212669e+002,7.960912e+001
9.222311e+002,7.985380e+001
9.231954e+002,7.994269e+001
9.241596e+002,8.047443e+001
9.251238e+002,8.173090e+001
9.260881e+002,8.387144e+001
9.270523e+002,8.695373e+001
9.280165e+002,9.007684e+001
9.289808e+002,9.309483e+001
9.299450e+002,9.564613e+001
9.309092e+002,9.663558e+001
9.318735e+002,9.627865e+001
9.328377e+002,9.632770e+001
9.338019e+002,9.895382e+001
9.347662e+002,1.040786e+002
9.357304e+002,1.064804e+002
9.366946e+002,1.056448e+002
9.376589e+002,1.053746e+002
9.386231e+002,1.067884e+002
9.395873e+002,1.090574e+002
9.405516e+002,1.108148e+002
9.415158e+002,1.118990e+002
9.424800e+002,1.133744e+002
9.434443e+002,1.167097e+002
9.444085e+002,1.198233e+002
9.453727e+002,1.206356e+002
9.463370e+002,1.194979e+002
9.473012e+002,1.185902e+002
9.482654e+002,1.199254e+002
9.492297e+002,1.226150e+002
9.501939e+002,1.239070e+002
9.511581e+002,1.243857e+002
9.521224e+002,1.251150e+002
9.530866e+002,1.263072e+002
9.540508e+002,1.277352e+002
9.550151e+002,1.291634e+002
9.559793e+002,1.305510e+002
9.569435e+002,1.309591e+002
9.579078e+002,1.313397e+002
9.588720e+002,1.315208e+002
9.598362e+002,1.304008e+002
9.608005e+002,1.284473e+002
9.617647e+002,1.274849e+002
9.627289e+002,1.290512e+002
9.636932e+002,1.317329e+002
9.646574e+002,1.323422e+002
9.656216e+002,1.313654e+002
9.665859e+002,1.310008e+002
9.675501e+002,1.325134e+002
9.685143e+002,1.350486e+002
9.694786e+002,1.361556e+002
9.704428e+002,1.343586e+002
9.714070e+002,1.356143e+002
9.723713e+002,1.413490e+002
9.733355e+002,1.465616e+002
9.742997e+002,1.495685e+002
9.752640e+002,1.510495e+002
9.762282e+002,1.522826e+002
9.771924e+002,1.534382e+002
9.781567e+002,1.542217e+002
9.791209e+002,1.539630e+002
9.800851e+002,1.537341e+002
9.810494e+002,1.553364e+002
9.820136e+002,1.593406e+002
9.829778e+002,1.648649e+002
9.839421e+002,1.706190e+002
9.849063e+002,1.766261e+002
9.858705e+002,1.788682e+002
9.868348e+002,1.757031e+002
9.877990e+002,1.733619e+002
9.887632e+002,1.738031e+002
9.897275e+002,1.757710e+002
9.906917e+002,1.768443e+002
9.916559e+002,1.757879e+002
9.926202e+002,1.740580e+002
9.935844e+002,1.740414e+002
9.945486e+002,1.746773e+002
9.955129e+002,1.749168e+002
9.964771e+002,1.748370e+002
9.974413e+002,1.750017e+002
9.984056e+002,1.757547e+002
9.993698e+002,1.767570e+002
1.000334e+003,1.772983e+002
1.001298e+003,1.776094e+002
1.002263e+003,1.776140e+002
1.003227e+003,1.765101e+002
1.004191e+003,1.754721e+002
1.005155e+003,1.760963e+002
1.006119e+003,1.785673e+002
1.007084e+003,1.808155e+002
1.008048e+003,1.820418e+002
1.009012e+003,1.832719e+002
1.009976e+003,1.844949e+002
1.010941e+003,1.856063e+002
1.011905e+003,1.865539e+002
1.012869e+003,1.874025e+002
1.013833e+003,1.885010e+002
1.014798e+003,1.909349e+002
1.015762e+003,1.960062e+002
1.016726e+003,1.997036e+002
1.017690e+003,1.999949e+002
1.018654e+003,2.006203e+002
1.019619e+003,2.047947e+002
1.020583e+003,2.117372e+002
1.021547e+003,2.169538e+002
1.022511e+003,2.184305e+002
1.023476e+003,2.188189e+002
1.024440e+003,2.193081e+002
1.025404e+003,2.202567e+002
1.026368e+003,2.216670e+002
1.027333e+003,2.236600e+002
1.028297e+003,2.268103e+002
1.029261e+003,2.318884e+002
1.030225e+003,2.382391e+002
1.031190e+003,2.420533e+002
1.032154e+003,2.437122e+002
1.033118e+003,2.457543e+002
1.034082e+003,2.488222e+002
1.035047e+003,2.525602e+002
1.036011e+003,2.567038e+002
1.036975e+003,2.614361e+002
1.037939e+003,2.651364e+002
1.038903e+003,2.671574e+002
1.039868e+003,2.695060e+002
1.040832e+003,2.725196e+002
1.041796e+003,2.763065e+002
1.042760e+003,2.814302e+002
1.043725e+003,2.882988e+002
1.044689e+003,2.953563e+002
1.045653e+003,2.985252e+002
1.046617e+003,2.980024e+002
1.047582e+003,2.988308e+002
1.048546e+003,3.027013e+002
1.049510e+003,3.080246e+002
1.050474e+003,3.127526e+002
1.051438e+003,3.165636e+002
1.052403e+003,3.208985e+002
1.053367e+003,3.261162e+002
1.054331e+003,3.313479e+002
1.055295e+003,3.376796e+002
1.056260e+003,3.435511e+002
1.057224e+003,3.467588e+002
1.058188e+003,3.473993e+002
1.059152e+003,3.481828e+002
1.060117e+003,3.517978e+002
1.061081e+003,3.579156e+002
1.062045e+003,3.652562e+002
1.063009e+003,3.734710e+002
1.063974e+003,3.800298e+002
1.064938e+003,3.838527e+002
1.065902e+003,3.863860e+002
1.066866e+003,3.897530e+002
1.067830e+003,3.934162e+002
1.068795e+003,3.976408e+002
1.069759e+003,4.040195e+002
1.070723e+003,4.100487e+002
1.071687e+003,4.145749e+002
1.072652e+003,4.184765e+002
1.073616e+003,4.230925e+002
1.074580e+003,4.286881e+002
1.075544e+003,4.337881e+002
1.076509e+003,4.360638e+002
1.077473e+003,4.364183e+002
1.078437e+003,4.396939e+002
1.079401e+003,4.471138e+002
1.080365e+003,4.548285e+002
1.081330e+003,4.593812e+002
1.082294e+003,4.611590e+002
1.083258e+003,4.636478e+002
1.084222e+003,4.677195e+002
1.085187e+003,4.714948e+002
1.086151e+003,4.746608e+002
1.087115e+003,4.775238e+002
1.088079e+003,4.800895e+002
1.089043e+003,4.823876e+002
1.090008e+003,4.847745e+002
1.090972e+003,4.876770e+002
1.091936e+003,4.901775e+002
1.092900e+003,4.887400e+002
1.093865e+003,4.840097e+002
1.094829e+003,4.812469e+002
1.095793e+003,4.827358e+002
1.096757e+003,4.854395e+002
1.097722e+003,4.852269e+002
1.098686e+003,4.816112e+002
1.099650e+003,4.789122e+002
1.100614e+003,4.801898e+002
1.101578e+003,4.808021e+002
1.102543e+003,4.793445e+002
1.103507e+003,4.762179e+002
1.104471e+003,4.705725e+002
1.105435e+003,4.627523e+002
1.106400e+003,4.556347e+002
1.107364e+003,4.529401e+002
1.108328e+003,4.534189e+002
1.109292e+003,4.490257e+002
1.110257e+003,4.401069e+002
1.111221e+003,4.320610e+002
1.112185e+003,4.257261e+002
1.113149e+003,4.204383e+002
1.114114e+003,4.164091e+002
1.115078e+003,4.143007e+002
1.116042e+003,4.107840e+002
1.117006e+003,4.044337e+002
1.117970e+003,3.975206e+002
1.118935e+003,3.895857e+002
1.119899e+003,3.815012e+002
1.120863e+003,3.749865e+002
1.121827e+003,3.705204e+002
1.122792e+003,3.664356e+002
1.123756e+003,3.602100e+002
1.124720e+003,3.517453e+002
1.125684e+003,3.453928e+002
1.126649e+003,3.425487e+002
1.127613e+003,3.390103e+002
1.128577e+003,3.318882e+002
1.129541e+003,3.234898e+002
1.130505e+003,3.180036e+002
1.131470e+003,3.159363e+002
1.132434e+003,3.123504e+002
1.133398e+003,3.044944e+002
1.134362e+003,2.967860e+002
1.135327e+003,2.911648e+002
1.136291e+003,2.865482e+002
1.137255e+003,2.811479e+002
1.138219e+003,2.745448e+002
1.139184e+003,2.683357e+002
1.140148e+003,2.647414e+002
1.141112e+003,2.632404e+002
1.142076e+003,2.584341e+002
1.143041e+003,2.493654e+002
1.144005e+003,2.420146e+002
1.144969e+003,2.396687e+002
1.145933e+003,2.394412e+002
1.146897e+003,2.367639e+002
1.147862e+003,2.308423e+002
1.148826e+003,2.246484e+002
1.149790e+003,2.195567e+002
1.150754e+003,2.150285e+002
1.151719e+003,2.105247e+002
1.152683e+003,2.064440e+002
1.153647e+003,2.034580e+002
1.154611e+003,2.017944e+002
1.155576e+003,2.010102e+002
1.156540e+003,2.004122e+002
1.157504e+003,1.996284e+002
1.158468e+003,1.956513e+002
1.159432e+003,1.867240e+002
1.160397e+003,1.790867e+002
1.161361e+003,1.751585e+002
1.162325e+003,1.730361e+002
1.163289e+003,1.703145e+002
1.164254e+003,1.664511e+002
1.165218e+003,1.619809e+002
1.166182e+003,1.567790e+002
1.167146e+003,1.522220e+002
1.168111e+003,1.497556e+002
1.169075e+003,1.482106e+002
1.170039e+003,1.456664e+002
1.171003e+003,1.415767e+002
1.171968e+003,1.370141e+002
1.172932e+003,1.334723e+002
1.173896e+003,1.311216e+002
1.174860e+003,1.290944e+002
1.175824e+003,1.274239e+002
1.176789e+003,1.253515e+002
1.177753e+003,1.227929e+002
1.178717e+003,1.200700e+002
1.179681e+003,1.173761e+002
1.180646e+003,1.146884e+002
1.181610e+003,1.118032e+002
1.182574e+003,1.084727e+002
1.183538e+003,1.053186e+002
1.184503e+003,1.040141e+002
1.185467e+003,1.033372e+002
1.186431e+003,1.004559e+002
1.187395e+003,9.462718e+001
1.188359e+003,8.861869e+001
1.189324e+003,8.591482e+001
1.190288e+003,8.645940e+001
1.191252e+003,8.560888e+001
1.192216e+003,8.237840e+001
1.193181e+003,7.882246e+001
1.194145e+003,7.384013e+001
1.195109e+003,6.931839e+001
1.196073e+003,6.734706e+001
1.197038e+003,6.730931e+001
1.198002e+003,6.698932e+001
1.198966e+003,6.516784e+001
1.199930e+003,6.281527e+001
1.200895e+003,6.145702e+001
1.201859e+003,6.083374e+001
1.202823e+003,5.977092e+001
1.203787e+003,5.804482e+001
1.204751e+003,5.635178e+001
1.205716e+003,5.579123e+001
1.206680e+003,5.562069e+001
1.207644e+003,5.323680e+001
1.208608e+003,4.780035e+001
1.209573e+003,4.286864e+001
1.210537e+003,3.957175e+001
1.211501e+003,3.741540e+001
1.212465e+003,3.613244e+001
1.213430e+003,3.591930e+001
1.214394e+003,3.731740e+001
1.215358e+003,3.988144e+001
1.216322e+003,4.179764e+001
1.217286e+003,4.121095e+001
1.218251e+003,3.862413e+001
1.219215e+003,3.662804e+001
1.220179e+003,3.566270e+001
1.221143e+003,3.467385e+001
1.222108e+003,3.271830e+001
1.223072e+003,3.109044e+001
1.224036e+003,3.146646e+001
1.225000e+003,3.335980e+001
1.225965e+003,3.396114e+001
1.226929e+003,3.213069e+001
1.227893e+003,2.891540e+001
1.228857e+003,2.497402e+001
1.229822e+003,2.188180e+001
1.230786e+003,2.100338e+001
1.231750e+003,2.193420e+001
1.232714e+003,2.300337e+001
1.233678e+003,2.289772e+001
1.234643e+003,2.181732e+001
1.235607e+003,2.085098e+001
1.236571e+003,2.085112e+001
1.237535e+003,2.034025e+001
1.238500e+003,1.767318e+001
1.239464e+003,1.587193e+001
1.240428e+003,1.707629e+001
1.241392e+003,1.948881e+001
1.242357e+003,2.023427e+001
1.243321e+003,1.884775e+001
1.244285e+003,1.734843e+001
1.245249e+003,1.702010e+001
1.246214e+003,1.761022e+001
1.247178e+003,1.854810e+001
1.248142e+003,1.938671e+001
1.249106e+003,1.952866e+001
1.250070e+003,1.898749e+001
1.251035e+003,1.782478e+001
1.251999e+003,1.536706e+001
1.252963e+003,1.141074e+001
1.253927e+003,9.686568e+000
1.254892e+003,1.220451e+001
1.255856e+003,1.459891e+001
1.256820e+003,1.614935e+001
1.257784e+003,1.680933e+001
1.258749e+003,1.609467e+001
1.259713e+003,1.450553e+001
1.260677e+003,1.318842e+001
1.261641e+003,1.280506e+001
1.262605e+003,1.305383e+001
1.263570e+003,1.366678e+001
1.264534e+003,1.469639e+001
1.265498e+003,1.450712e+001
1.266462e+003,1.237228e+001
1.267427e+003,1.086437e+001
1.268391e+003,1.148206e+001
1.269355e+003,1.275494e+001
1.270319e+003,1.249460e+001
1.271284e+003,1.070415e+001
1.272248e+003,9.259334e+000
1.273212e+003,9.559796e+000
1.274176e+003,1.023445e+001
1.275141e+003,8.699491e+000
1.276105e+003,6.177516e+000
1.277069e+003,5.347663e+000
1.278033e+003,6.795077e+000
1.278997e+003,8.726115e+000
1.279962e+003,9.491244e+000
1.280926e+003,9.591683e+000
1.281890e+003,1.008395e+001
1.282854e+003,9.601777e+000
1.283819e+003,9.371354e+000
1.284783e+003,1.097289e+001
1.285747e+003,1.182483e+001
1.286711e+003,1.003003e+001
1.287676e+003,7.468604e+000
1.288640e+003,7.137147e+000
1.289604e+003,9.472482e+000
1.290568e+003,1.187475e+001
1.291532e+003,1.231595e+001
1.292497e+003,1.134277e+001
1.293461e+003,1.032024e+001
1.294425e+003,9.410502e+000
1.295389e+003,8.232003e+000
1.296354e+003,6.202168e+000
1.297318e+003,4.511064e+000
1.298282e+003,4.858577e+000
1.299246e+003,6.832904e+000
1.300211e+003,7.786647e+000
1.301175e+003,7.508683e+000
1.302139e+003,7.341540e+000
1.303103e+003,6.864263e+000
1.304068e+003,6.472907e+000
1.305032e+003,6.974233e+000
1.305996e+003,7.911212e+000
1.306960e+003,8.216216e+000
1.307924e+003,7.675622e+000
1.308889e+003,7.366212e+000
1.309853e+003,8.409631e+000
1.310817e+003,1.010690e+001
1.311781e+003,1.059554e+001
1.312746e+003,1.158074e+001
1.313710e+003,1.110206e+001
1.314674e+003,6.362370e+000
1.315638e+003,2.032641e+000
1.316603e+003,1.843581e+000
1.317567e+003,4.406701e+000
1.318531e+003,6.282062e+000
1.319495e+003,6.935420e+000
1.320459e+003,7.732377e+000
1.321424e+003,9.060811e+000
1.322388e+003,1.033027e+001
1.323352e+003,1.151304e+001
1.324316e+003,1.254650e+001
1.325281e+003,1.268755e+001
1.326245e+003,1.145316e+001
1.327209e+003,9.654479e+000
1.328173e+003,8.281259e+000
1.329138e+003,7.330995e+000
1.330102e+003,6.901893e+000
1.331066e+003,7.708186e+000
1.332030e+003,8.437133e+000
1.332995e+003,8.454698e+000
1.333959e+003,7.918046e+000
1.334923e+003,6.375030e+000
1.335887e+003,4.520473e+000
1.336851e+003,4.043159e+000
1.337816e+003,5.650056e+000
1.338780e+003,7.773904e+000
1.339744e+003,7.918181e+000
1.340708e+003,5.905583e+000
1.341673e+003,4.424706e+000
1.342637e+003,3.371730e+000
1.343601e+003,3.277293e+000
1.344565e+003,6.063821e+000
1.345530e+003,8.650504e+000
1.346494e+003,7.653369e+000
1.347458e+003,4.529325e+000
1.348422e+003,3.726857e+000
1.349386e+003,6.453427e+000
1.350351e+003,9.056750e+000
1.351315e+003,8.900657e+000
1.352279e+003,7.556436e+000
1.353243e+003,7.389810e+000
1.354208e+003,8.122155e+000
1.355172e+003,8.105277e+000
1.356136e+003,6.308291e+000
1.357100e+003,4.196897e+000
1.358065e+003,3.938453e+000
1.359029e+003,5.438842e+000
1.359993e+003,6.383183e+000
1.360957e+003,6.614068e+000
1.361922e+003,6.991176e+000
1.362886e+003,8.208112e+000
1.363850e+003,9.047221e+000
1.364814e+003,8.107873e+000
1.365778e+003,6.281362e+000
1.366743e+003,5.323365e+000
1.367707e+003,5.652215e+000
1.368671e+003,6.043733e+000
1.369635e+003,5.341241e+000
1.370600e+003,4.163938e+000
1.371564e+003,4.105453e+000
1.372528e+003,5.305985e+000
1.373492e+003,6.217134e+000
1.374457e+003,6.593415e+000
1.375421e+003,6.585645e+000
1.376385e+003,6.276895e+000
1.377349e+003,6.011767e+000
1.378313e+003,6.227519e+000
1.379278e+003,6.780778e+000
1.380242e+003,6.832435e+000
1.381206e+003,5.937295e+000
1.382170e+003,4.892238e+000
1.383135e+003,4.406003e+000
1.384099e+003,4.515880e+000
1.385063e+003,5.647103e+000
1.386027e+003,7.572070e+000
1.386992e+003,8.786330e+000
1.387956e+003,8.188560e+000
1.388920e+003,7.252759e+000
1.389884e+003,8.999377e+000
1.390849e+003,1.363227e+001
1.391813e+003,1.580585e+001
1.392777e+003,1.212151e+001
1.393741e+003,7.993857e+000
1.394705e+003,7.118627e+000
1.395670e+003,7.859529e+000
1.396634e+003,8.514783e+000
1.397598e+003,8.444921e+000
1.398562e+003,7.609113e+000
1.399527e+003,6.302035e+000
1.400491e+003,5.136664e+000
1.401455e+003,4.776574e+000
1.402419e+003,5.211879e+000
1.403384e+003,5.281749e+000
1.404348e+003,3.365212e+000
1.405312e+003,2.321645e+000
1.406276e+003,4.702315e+000
1.407240e+003,7.673364e+000
1.408205e+003,8.773973e+000
1.409169e+003,8.045035e+000
1.410133e+003,6.045878e+000
1.411097e+003,3.317824e+000
1.412062e+003,1.359649e+000
1.413026e+003,1.985991e+000
1.413990e+003,4.698867e+000
1.414954e+003,6.460734e+000
1.415919e+003,6.723807e+000
1.416883e+003,7.300643e+000
1.417847e+003,8.587913e+000
1.418811e+003,9.279584e+000
1.419776e+003,8.462756e+000
1.420740e+003,7.082494e+000
1.421704e+003,6.552314e+000
1.422668e+003,7.039329e+000
1.423632e+003,7.778159e+000
1.424597e+003,8.552676e+000
1.425561e+003,8.884368e+000
1.426525e+003,7.530190e+000
1.427489e+003,5.881684e+000
1.428454e+003,6.205087e+000
1.429418e+003,8.452544e+000
1.430382e+003,1.030057e+001
1.431346e+003,1.004085e+001
1.432311e+003,8.916249e+000
1.433275e+003,1.010596e+001
1.434239e+003,1.394830e+001
1.435203e+003,1.476841e+001
1.436167e+003,9.404366e+000
1.437132e+003,5.897355e+000
1.438096e+003,9.476510e+000
1.439060e+003,1.305388e+001
1.440024e+003,1.241791e+001
1.440989e+003,9.614629e+000
1.441953e+003,7.862721e+000
1.442917e+003,7.830220e+000
1.443881e+003,8.085544e+000
1.444846e+003,7.606475e+000
1.445810e+003,6.827828e+000
1.446774e+003,6.230929e+000
1.447738e+003,5.276223e+000
1.448703e+003,4.620574e+000
1.449667e+003,4.570867e+000
1.450631e+003,4.653953e+000
1.451595e+003,5.372033e+000
1.452559e+003,6.129464e+000
1.453524e+003,5.574012e+000
1.454488e+003,4.335925e+000
1.455452e+003,4.828780e+000
1.456416e+003,7.991052e+000
1.457381e+003,1.131151e+001
1.458345e+003,1.166564e+001
1.459309e+003,9.435100e+000
1.460273e+003,7.989089e+000
1.461238e+003,8.108430e+000
1.462202e+003,8.478913e+000
1.463166e+003,8.871902e+000
1.464130e+003,9.361798e+000
1.465094e+003,9.490716e+000
1.466059e+003,9.136889e+000
1.467023e+003,8.759303e+000
1.467987e+003,8.711411e+000
1.468951e+003,8.899894e+000
1.469916e+003,9.430827e+000
1.470880e+003,1.058394e+001
1.471844e+003,1.215652e+001
1.472808e+003,1.317990e+001
1.473773e+003,1.289765e+001
1.474737e+003,1.158707e+001
1.475701e+003,1.091301e+001
1.476665e+003,1.207218e+001
1.477630e+003,1.412269e+001
1.478594e+003,1.608664e+001
1.479558e+003,1.739378e+001
1.480522e+003,1.628665e+001
1.481486e+003,1.212841e+001
1.482451e+003,8.929088e+000
1.483415e+003,9.059762e+000
1.484379e+003,1.024968e+001
1.485343e+003,1.100166e+001
1.486308e+003,1.144643e+001
1.487272e+003,1.150472e+001
1.488236e+003,1.120147e+001
1.489200e+003,1.128822e+001
1.490165e+003,1.230360e+001
1.491129e+003,1.376886e+001
1.492093e+003,1.508273e+001
1.493057e+003,1.649382e+001
1.494021e+003,1.724418e+001
1.494986e+003,1.668581e+001
1.495950e+003,1.687999e+001
1.496914e+003,1.868987e+001
1.497878e+003,2.048796e+001
1.498843e+003,2.087599e+001
1.499807e+003,2.080826e+001
1.500771e+003,2.236332e+001
1.501735e+003,2.579134e+001
1.502700e+003,2.881060e+001
1.503664e+003,2.922467e+001
1.504628e+003,2.770623e+001
1.505592e+003,2.670926e+001
1.506557e+003,2.640686e+001
1.507521e+003,2.761829e+001
1.508485e+003,3.238683e+001
1.509449e+003,3.531253e+001
1.510413e+003,3.466924e+001
1.511378e+003,3.232176e+001
1.512342e+003,2.856784e+001
1.513306e+003,2.497265e+001
1.514270e+003,2.456794e+001
1.515235e+003,2.766760e+001
1.516199e+003,3.020286e+001
1.517163e+003,2.826373e+001
1.518127e+003,2.344471e+001
1.519092e+003,2.045514e+001
1.520056e+003,1.936117e+001
1.521020e+003,1.908525e+001
1.521984e+003,2.043541e+001
1.522948e+003,2.131295e+001
1.523913e+003,2.136333e+001
1.524877e+003,2.118280e+001
1.525841e+003,2.080090e+001
1.526805e+003,2.037583e+001
1.527770e+003,2.028991e+001
1.528734e+003,2.044372e+001
1.529698e+003,2.038145e+001
1.530662e+003,2.010982e+001
1.531627e+003,1.970059e+001
1.532591e+003,1.869650e+001
1.533555e+003,1.704841e+001
1.534519e+003,1.554703e+001
1.535484e+003,1.390654e+001
1.536448e+003,1.306662e+001
1.537412e+003,1.365071e+001
1.538376e+003,1.456607e+001
1.539340e+003,1.503757e+001
1.540305e+003,1.519674e+001
1.541269e+003,1.521447e+001
1.542233e+003,1.488739e+001
1.543197e+003,1.375610e+001
1.544162e+003,1.140062e+001
1.545126e+003,8.547368e+000
1.546090e+003,6.984633e+000
1.547054e+003,7.231267e+000
1.548019e+003,7.990029e+000
1.548983e+003,7.982968e+000
1.549947e+003,8.316161e+000
1.550911e+003,1.040550e+001
1.551875e+003,1.282051e+001
1.552840e+003,1.436056e+001
1.553804e+003,1.535372e+001
1.554768e+003,1.571417e+001
1.555732e+003,1.496981e+001
1.556697e+003,1.381845e+001
1.557661e+003,1.277797e+001
1.558625e+003,1.194177e+001
1.559589e+003,1.143769e+001
1.560554e+003,1.120735e+001
1.561518e+003,1.100366e+001
1.562482e+003,1.067257e+001
1.563446e+003,1.063041e+001
1.564411e+003,1.171469e+001
1.565375e+003,1.300660e+001
1.566339e+003,1.295199e+001
1.567303e+003,1.194968e+001
1.568267e+003,1.190170e+001
1.569232e+003,1.314776e+001
1.570196e+003,1.397950e+001
1.571160e+003,1.354756e+001
1.572124e+003,1.247711e+001
1.573089e+003,1.132601e+001
1.574053e+003,1.056858e+001
1.575017e+003,1.054824e+001
1.575981e+003,1.110169e+001
1.576946e+003,1.193746e+001
1.577910e+003,1.291427e+001
1.578874e+003,1.335030e+001
1.579838e+003,1.281639e+001
1.580802e+003,1.212683e+001
1.581767e+003,1.241571e+001
1.582731e+003,1.334568e+001
1.583695e+003,1.332960e+001
1.584659e+003,1.150704e+001
1.585624e+003,9.383981e+000
1.586588e+003,8.172835e+000
1.587552e+003,8.267583e+000
1.588516e+003,1.019733e+001
1.589481e+003,1.331786e+001
1.590445e+003,1.572097e+001
1.591409e+003,1.653446e+001
1.592373e+003,1.664865e+001
1.593338e+003,1.717213e+001
1.594302e+003,1.793980e+001
1.595266e+003,1.813176e+001
1.596230e+003,1.778721e+001
1.597194e+003,1.731526e+001
1.598159e+003,1.651407e+001
1.599123e+003,1.547556e+001
1.600087e+003,1.319454e+001
1.601051e+003,1.201372e+001
1.602016e+003,1.562848e+001
1.602980e+003,2.117670e+001
1.603944e+003,2.227866e+001
1.604908e+003,1.804987e+001
1.605873e+003,1.399922e+001
1.606837e+003,1.382855e+001
1.607801e+003,1.573307e+001
1.608765e+003,1.664324e+001
1.609729e+003,1.626293e+001
1.610694e+003,1.552805e+001
1.611658e+003,1.474799e+001
1.612622e+003,1.423604e+001
1.613586e+003,1.492048e+001
1.614551e+003,1.555217e+001
1.615515e+003,1.403053e+001
1.616479e+003,1.159718e+001
1.617443e+003,1.019391e+001
1.618408e+003,1.004521e+001
1.619372e+003,1.075170e+001
1.620336e+003,1.248357e+001
1.621300e+003,1.413773e+001
1.622265e+003,1.364966e+001
1.623229e+003,1.201405e+001
1.624193e+003,1.305213e+001
1.625157e+003,1.685619e+001
1.626121e+003,1.927088e+001
1.627086e+003,1.908784e+001
1.628050e+003,1.856653e+001
1.629014e+003,1.886844e+001
1.629978e+003,1.913060e+001
1.630943e+003,1.906236e+001
1.631907e+003,1.848532e+001
1.632871e+003,1.675414e+001
1.633835e+003,1.396430e+001
1.634800e+003,1.163745e+001
1.635764e+003,1.054117e+001
1.636728e+003,1.078862e+001
1.637692e+003,1.280309e+001
1.638656e+003,1.578971e+001
1.639621e+003,1.722151e+001
1.640585e+003,1.668350e+001
1.641549e+003,1.596542e+001
1.642513e+003,1.641272e+001
1.643478e+003,1.729031e+001
1.644442e+003,1.755308e+001
1.645406e+003,1.722690e+001
1.646370e+003,1.586975e+001
1.647335e+003,1.374612e+001
1.648299e+003,1.315164e+001
1.649263e+003,1.531098e+001
1.650227e+003,1.787333e+001
1.651192e+003,1.960217e+001
1.652156e+003,2.012523e+001
1.653120e+003,1.761362e+001
1.654084e+003,1.278722e+001
1.655048e+003,1.117023e+001
1.656013e+003,1.431554e+001
1.656977e+003,1.787045e+001
1.657941e+003,1.968974e+001
1.658905e+003,1.976073e+001
1.659870e+003,1.742825e+001
1.660834e+003,1.440893e+001
1.661798e+003,1.401521e+001
1.662762e+003,1.638416e+001
1.663727e+003,1.858146e+001
1.664691e+003,1.940778e+001
1.665655e+003,1.973811e+001
1.666619e+003,2.061542e+001
1.667583e+003,2.163882e+001
1.668548e+003,2.145586e+001
1.669512e+003,1.994219e+001
1.670476e+003,1.870475e+001
1.671440e+003,1.863947e+001
1.672405e+003,1.928352e+001
1.673369e+003,2.003614e+001
1.674333e+003,2.075413e+001
1.675297e+003,2.151691e+001
1.676262e+003,2.221436e+001
1.677226e+003,2.229565e+001
1.678190e+003,2.159024e+001
1.679154e+003,2.067754e+001
1.680119e+003,1.956431e+001
1.681083e+003,1.843655e+001
1.682047e+003,1.738616e+001
1.683011e+003,1.664746e+001
1.683975e+003,1.662499e+001
1.684940e+003,1.746536e+001
1.685904e+003,1.920983e+001
1.686868e+003,2.180718e+001
1.687832e+003,2.400059e+001
1.688797e+003,2.427089e+001
1.689761e+003,2.295095e+001
1.690725e+003,2.201894e+001
1.691689e+003,2.188391e+001
1.692654e+003,2.153122e+001
1.693618e+003,2.146397e+001
1.694582e+003,2.141031e+001
1.695546e+003,1.955768e+001
1.696510e+003,1.818972e+001
1.697475e+003,2.078054e+001
1.698439e+003,2.479957e+001
1.699403e+003,2.535350e+001
1.700367e+003,2.262555e+001
1.701332e+003,2.076055e+001
1.702296e+003,2.174710e+001
1.703260e+003,2.423205e+001
1.704224e+003,2.671015e+001
1.705189e+003,2.875896e+001
1.706153e+003,2.955270e+001
1.707117e+003,2.862151e+001
1.708081e+003,2.722087e+001
1.709046e+003,2.579795e+001
1.710010e+003,2.603406e+001
1.710974e+003,2.755922e+001
1.711938e+003,2.974824e+001
1.712902e+003,3.348052e+001
1.713867e+003,3.669722e+001
1.714831e+003,3.672225e+001
1.715795e+003,3.435200e+001
1.716759e+003,3.255613e+001
1.717724e+003,3.264941e+001
1.718688e+003,3.362390e+001
1.719652e+003,3.434202e+001
1.720616e+003,3.464436e+001
1.721581e+003,3.456594e+001
1.722545e+003,3.414289e+001
1.723509e+003,3.402001e+001
1.724473e+003,3.460939e+001
1.725438e+003,3.512148e+001
1.726402e+003,3.441059e+001
1.727366e+003,3.394779e+001
1.728330e+003,3.531841e+001
1.729294e+003,3.736657e+001
1.730259e+003,3.846457e+001
1.731223e+003,3.859680e+001
1.732187e+003,3.867604e+001
1.733151e+003,3.892597e+001
1.734116e+003,3.865648e+001
1.735080e+003,3.741376e+001
1.736044e+003,3.584204e+001
1.737008e+003,3.443725e+001
1.737973e+003,3.302090e+001
1.738937e+003,3.274406e+001
1.739901e+003,3.410483e+001
1.740865e+003,3.469637e+001
1.741829e+003,3.303715e+001
1.742794e+003,3.148143e+001
1.743758e+003,3.276597e+001
1.744722e+003,3.520137e+001
1.745686e+003,3.607200e+001
1.746651e+003,3.540214e+001
1.747615e+003,3.464419e+001
1.748579e+003,3.395092e+001
1.749543e+003,3.333845e+001
1.750508e+003,3.301087e+001
1.751472e+003,3.304491e+001
1.752436e+003,3.318336e+001
1.753400e+003,3.334981e+001
1.754365e+003,3.426112e+001
1.755329e+003,3.583647e+001
1.756293e+003,3.593061e+001
1.757257e+003,3.355616e+001
1.758221e+003,3.081072e+001
1.759186e+003,2.972969e+001
1.760150e+003,3.023770e+001
1.761114e+003,3.152884e+001
1.762078e+003,3.310584e+001
1.763043e+003,3.363333e+001
1.764007e+003,3.192075e+001
1.764971e+003,3.067031e+001
1.765935e+003,3.174231e+001
1.766900e+003,3.327876e+001
1.767864e+003,3.444832e+001
1.768828e+003,3.479712e+001
1.769792e+003,3.325723e+001
1.770756e+003,3.071415e+001
1.771721e+003,2.946817e+001
1.772685e+003,2.986091e+001
1.773649e+003,2.972116e+001
1.774613e+003,2.760417e+001
1.775578e+003,2.523288e+001
1.776542e+003,2.558813e+001
1.777506e+003,2.848800e+001
1.778470e+003,3.036665e+001
1.779435e+003,3.099774e+001
1.780399e+003,3.049295e+001
1.781363e+003,2.828257e+001
1.782327e+003,2.686545e+001
1.783292e+003,2.696473e+001
1.784256e+003,2.717599e+001
1.785220e+003,2.675137e+001
1.786184e+003,2.636550e+001
1.787148e+003,2.699901e+001
1.788113e+003,2.845563e+001
1.789077e+003,2.936285e+001
1.790041e+003,2.888224e+001
1.791005e+003,2.780079e+001
1.791970e+003,2.709908e+001
1.792934e+003,2.694178e+001
1.793898e+003,2.712834e+001
1.794862e+003,2.757624e+001
1.795827e+003,2.853577e+001
1.796791e+003,2.999603e+001
1.797755e+003,3.053982e+001
1.798719e+003,2.947947e+001
1.799683e+003,2.775736e+001
1.800648e+003,2.595430e+001
1.801612e+003,2.401841e+001
1.802576e+003,2.236376e+001
1.803540e+003,2.086082e+001
1.804505e+003,1.971590e+001
1.805469e+003,1.939542e+001
1.806433e+003,2.065787e+001
1.807397e+003,2.543581e+001
1.808362e+003,2.878618e+001
1.809326e+003,2.547125e+001
1.810290e+003,2.011993e+001
1.811254e+003,1.976707e+001
1.812219e+003,2.358514e+001
1.813183e+003,2.590528e+001
1.814147e+003,2.461126e+001
1.815111e+003,2.275583e+001
1.816075e+003,2.342962e+001
1.817040e+003,2.564135e+001
1.818004e+003,2.635758e+001
1.818968e+003,2.564911e+001
1.819932e+003,2.602504e+001
1.820897e+003,2.713013e+001
1.821861e+003,2.723241e+001
1.822825e+003,2.606959e+001
1.823789e+003,2.472829e+001
1.824754e+003,2.369898e+001
1.825718e+003,2.388663e+001
1.826682e+003,2.620635e+001
1.827646e+003,2.883990e+001
1.828610e+003,2.917765e+001
1.829575e+003,2.740692e+001
1.830539e+003,2.584773e+001
1.831503e+003,2.526875e+001
1.832467e+003,2.552745e+001
1.833432e+003,2.714679e+001
1.834396e+003,2.883607e+001
1.835360e+003,2.907446e+001
1.836324e+003,2.863266e+001
1.837289e+003,2.803142e+001
1.838253e+003,2.696708e+001
1.839217e+003,2.693288e+001
1.840181e+003,2.884868e+001
1.841146e+003,3.000543e+001
1.842110e+003,2.804509e+001
1.843074e+003,2.520638e+001
1.844038e+003,2.552110e+001
1.845002e+003,2.874767e+001
1.845967e+003,3.011179e+001
1.846931e+003,2.809571e+001
1.847895e+003,2.742531e+001
1.848859e+003,2.841872e+001
1.849824e+003,2.863159e+001
1.850788e+003,2.750283e+001
1.851752e+003,2.627151e+001
1.852716e+003,2.598196e+001
1.853681e+003,2.677362e+001
1.854645e+003,2.867293e+001
1.855609e+003,3.081209e+001
1.856573e+003,3.100043e+001
1.857537e+003,2.820993e+001
1.858502e+003,2.523473e+001
1.859466e+003,2.577238e+001
1.860430e+003,2.844540e+001
1.861394e+003,2.885789e+001
1.862359e+003,2.713219e+001
1.863323e+003,2.674717e+001
1.864287e+003,2.790028e+001
1.865251e+003,2.845981e+001
1.866216e+003,2.841544e+001
1.867180e+003,2.765761e+001
1.868144e+003,2.463701e+001
1.869108e+003,2.151947e+001
1.870073e+003,2.259240e+001
1.871037e+003,2.684085e+001
1.872001e+003,2.840637e+001
1.872965e+003,2.700195e+001
1.873929e+003,2.612615e+001
1.874894e+003,2.515365e+001
1.875858e+003,2.511851e+001
1.876822e+003,2.824705e+001
1.877786e+003,3.118099e+001
1.878751e+003,3.091954e+001
1.879715e+003,2.932904e+001
1.880679e+003,2.883300e+001
1.881643e+003,2.936814e+001
1.882608e+003,2.983733e+001
1.883572e+003,2.989209e+001
1.884536e+003,2.990294e+001
1.885500e+003,3.005452e+001
1.886464e+003,3.005118e+001
1.887429e+003,2.985227e+001
1.888393e+003,2.986903e+001
1.889357e+003,3.018492e+001
1.890321e+003,3.062169e+001
1.891286e+003,3.043388e+001
1.892250e+003,2.889992e+001
1.893214e+003,2.846226e+001
1.894178e+003,3.149626e+001
1.895143e+003,3.475040e+001
1.896107e+003,3.451934e+001
1.897071e+003,3.246247e+001
1.898035e+003,3.209675e+001
1.899000e+003,3.258452e+001
1.899964e+003,3.192226e+001
1.900928e+003,3.131191e+001
1.901892e+003,3.066231e+001
1.902856e+003,2.792095e+001
1.903821e+003,2.596699e+001
1.904785e+003,2.656556e+001
1.905749e+003,2.773511e+001
1.906713e+003,2.837832e+001
1.907678e+003,2.902781e+001
1.908642e+003,3.023795e+001
1.909606e+003,3.173507e+001
1.910570e+003,3.292216e+001
1.911535e+003,3.360656e+001
1.912499e+003,3.380039e+001
1.913463e+003,3.311928e+001
1.914427e+003,3.137863e+001
1.915391e+003,2.876145e+001
1.916356e+003,2.614937e+001
1.917320e+003,2.707939e+001
1.918284e+003,3.206073e+001
1.919248e+003,3.507519e+001
1.920213e+003,3.380753e+001
1.921177e+003,3.133715e+001
1.922141e+003,2.915765e+001
1.923105e+003,2.769078e+001
1.924070e+003,2.746346e+001
1.925034e+003,2.806388e+001
1.925998e+003,2.859074e+001
1.926962e+003,2.905019e+001
1.927927e+003,2.890520e+001
1.928891e+003,2.765479e+001
1.929855e+003,2.705755e+001
1.930819e+003,2.764536e+001
1.931783e+003,2.817828e+001
1.932748e+003,2.848517e+001
1.933712e+003,2.867089e+001
1.934676e+003,2.858474e+001
1.935640e+003,2.831968e+001
1.936605e+003,2.779191e+001
1.937569e+003,2.695717e+001
1.938533e+003,2.656425e+001
1.939497e+003,2.744457e+001
1.940462e+003,2.856548e+001
1.941426e+003,2.810323e+001
1.942390e+003,2.664769e+001
1.943354e+003,2.559642e+001
1.944318e+003,2.443943e+001
1.945283e+003,2.238544e+001
1.946247e+003,2.029592e+001
1.947211e+003,2.091317e+001
1.948175e+003,2.489044e+001
1.949140e+003,2.785537e+001
1.950104e+003,2.682065e+001
1.951068e+003,2.415243e+001
1.952032e+003,2.283685e+001
1.952997e+003,2.280330e+001
1.953961e+003,2.330068e+001
1.954925e+003,2.430714e+001
1.955889e+003,2.548246e+001
1.956854e+003,2.785033e+001
1.957818e+003,2.874577e+001
1.958782e+003,2.719229e+001
1.959746e+003,2.589708e+001
1.960710e+003,2.432782e+001
1.961675e+003,2.307903e+001
1.962639e+003,2.393130e+001
1.963603e+003,2.557676e+001
1.964567e+003,2.532231e+001
1.965532e+003,2.348031e+001
1.966496e+003,2.295031e+001
1.967460e+003,2.468543e+001
1.968424e+003,2.629035e+001
1.969389e+003,2.671983e+001
1.970353e+003,2.614582e+001
1.971317e+003,2.406764e+001
1.972281e+003,2.172626e+001
1.973245e+003,2.058036e+001
1.974210e+003,2.074462e+001
1.975174e+003,2.245770e+001
1.976138e+003,2.504429e+001
1.977102e+003,2.626996e+001
1.978067e+003,2.517329e+001
1.979031e+003,2.317897e+001
1.979995e+003,2.168511e+001
1.980959e+003,2.083247e+001
1.981924e+003,2.113643e+001
1.982888e+003,2.247950e+001
1.983852e+003,2.230296e+001
1.984816e+003,2.025115e+001
1.985781e+003,1.863909e+001
1.986745e+003,1.810141e+001
1.987709e+003,1.847211e+001
1.988673e+003,1.929908e+001
1.989637e+003,2.049109e+001
1.990602e+003,2.246952e+001
1.991566e+003,2.395319e+001
1.992530e+003,2.314344e+001
1.993494e+003,2.106988e+001
1.994459e+003,2.090158e+001
1.995423e+003,2.268101e+001
1.996387e+003,2.430424e+001
1.997351e+003,2.547524e+001
1.998316e+003,2.632121e+001
1.999280e+003,2.712749e+001
2.000244e+003,2.846141e+001
2.001208e+003,3.165743e+001
2.002172e+003,3.434336e+001
2.003137e+003,3.313469e+001
2.004101e+003,2.960233e+001
2.005065e+003,2.758002e+001
2.006029e+003,2.765248e+001
2.006994e+003,2.745045e+001
2.007958e+003,2.554644e+001
2.008922e+003,2.376435e+001
2.009886e+003,2.470192e+001
2.010851e+003,2.634468e+001
2.011815e+003,2.516515e+001
2.012779e+003,2.348786e+001
2.013743e+003,2.598048e+001
2.014708e+003,3.085552e+001
2.015672e+003,3.317672e+001
2.016636e+003,3.240036e+001
2.017600e+003,3.091037e+001
2.018564e+003,2.972205e+001
2.019529e+003,2.833347e+001
2.020493e+003,2.652030e+001
2.021457e+003,2.496469e+001
2.022421e+003,2.431506e+001
2.023386e+003,2.430758e+001
2.024350e+003,2.532070e+001
2.025314e+003,2.737708e+001
2.026278e+003,2.797543e+001
2.027243e+003,2.677153e+001
2.028207e+003,2.654722e+001
2.029171e+003,2.820149e+001
2.030135e+003,3.060569e+001
2.031099e+003,3.346629e+001
2.032064e+003,3.522336e+001
2.033028e+003,3.301825e+001
2.033992e+003,2.755379e+001
2.034956e+003,2.524117e+001
2.035921e+003,2.842719e+001
2.036885e+003,2.929819e+001
2.037849e+003,2.530558e+001
2.038813e+003,2.393747e+001
2.039778e+003,2.657093e+001
2.040742e+003,2.805149e+001
2.041706e+003,2.687901e+001
2.042670e+003,2.544247e+001
2.043635e+003,2.546356e+001
2.044599e+003,2.624482e+001
2.045563e+003,2.693482e+001
2.046527e+003,2.745208e+001
2.047491e+003,2.695668e+001
2.048456e+003,2.504892e+001
2.049420e+003,2.401900e+001
2.050384e+003,2.453863e+001
2.051348e+003,2.453028e+001
2.052313e+003,2.200526e+001
2.053277e+003,2.064642e+001
2.054241e+003,2.543594e+001
2.055205e+003,3.200676e+001
2.056170e+003,3.348429e+001
2.057134e+003,3.048513e+001
2.058098e+003,2.765800e+001
2.059062e+003,2.676494e+001
2.060027e+003,2.694596e+001
2.060991e+003,2.756300e+001
2.061955e+003,2.850235e+001
2.062919e+003,3.060221e+001
2.063884e+003,3.176931e+001
2.064848e+003,2.867180e+001
2.065812e+003,2.418805e+001
2.066776e+003,2.261285e+001
2.067740e+003,2.328757e+001
2.068705e+003,2.445764e+001
2.069669e+003,2.563587e+001
2.070633e+003,2.653881e+001
2.071597e+003,2.691775e+001
2.072562e+003,2.666887e+001
2.073526e+003,2.617015e+001
2.074490e+003,2.572274e+001
2.075454e+003,2.414458e+001
2.076418e+003,2.180780e+001
2.077383e+003,2.240326e+001
2.078347e+003,2.502445e+001
2.079311e+003,2.562145e+001
2.080275e+003,2.494012e+001
2.081240e+003,2.445671e+001
2.082204e+003,2.380715e+001
2.083168e+003,2.407481e+001
2.084132e+003,2.596354e+001
2.085096e+003,2.777468e+001
2.086061e+003,2.815489e+001
2.087025e+003,2.759967e+001
2.087989e+003,2.626469e+001
2.088953e+003,2.408150e+001
2.089918e+003,2.348955e+001
2.090882e+003,2.505339e+001
2.091846e+003,2.538651e+001
2.092810e+003,2.358857e+001
2.093775e+003,2.258852e+001
2.094739e+003,2.375240e+001
2.095703e+003,2.433661e+001
2.096667e+003,2.187044e+001
2.097632e+003,1.878220e+001
2.098596e+003,1.881063e+001
2.099560e+003,2.157526e+001
2.100524e+003,2.385707e+001
2.101489e+003,2.524599e+001
2.102453e+003,2.451966e+001
2.103417e+003,1.970536e+001
2.104381e+003,1.686693e+001
2.105345e+003,1.778716e+001
2.106310e+003,1.902908e+001
2.107274e+003,2.026256e+001
2.108238e+003,2.079638e+001
2.109202e+003,1.897710e+001
2.110167e+003,1.645809e+001
2.111131e+003,1.525962e+001
2.112095e+003,1.514372e+001
2.113059e+003,1.625423e+001
2.114023e+003,1.994793e+001
2.114988e+003,2.312653e+001
2.115952e+003,2.367902e+001
2.116916e+003,2.283183e+001
2.117880e+003,2.066583e+001
2.118845e+003,1.820271e+001
2.119809e+003,1.637646e+001
2.120773e+003,1.571207e+001
2.121737e+003,1.600066e+001
2.122702e+003,1.651616e+001
2.123666e+003,1.643771e+001
2.124630e+003,1.589508e+001
2.125594e+003,1.648853e+001
2.126559e+003,1.888428e+001
2.127523e+003,1.989201e+001
2.128487e+003,1.736249e+001
2.129451e+003,1.514960e+001
2.130416e+003,1.476318e+001
2.131380e+003,1.518344e+001
2.132344e+003,1.626133e+001
2.133308e+003,1.741014e+001
2.134272e+003,1.789578e+001
2.135237e+003,1.756633e+001
2.136201e+003,1.643091e+001
2.137165e+003,1.513982e+001
2.138129e+003,1.537484e+001
2.139094e+003,1.777337e+001
2.140058e+003,1.945440e+001
2.141022e+003,1.753093e+001
2.141986e+003,1.504737e+001
2.142950e+003,1.491219e+001
2.143915e+003,1.596206e+001
2.144879e+003,1.781177e+001
2.145843e+003,1.889688e+001
2.146807e+003,1.609092e+001
2.147772e+003,1.182773e+001
2.148736e+003,1.194935e+001
2.149700e+003,1.602364e+001
2.150664e+003,1.769747e+001
2.151629e+003,1.455140e+001
2.152593e+003,1.144395e+001
2.153557e+003,1.249023e+001
2.154521e+003,1.498461e+001
2.155486e+003,1.547122e+001
2.156450e+003,1.485003e+001
2.157414e+003,1.530292e+001
2.158378e+003,1.592114e+001
2.159343e+003,1.390286e+001
2.160307e+003,1.031755e+001
2.161271e+003,9.001330e+000
2.162235e+003,1.019400e+001
2.163199e+003,1.065888e+001
2.164164e+003,9.073010e+000
2.165128e+003,7.496345e+000
2.166092e+003,7.689013e+000
2.167056e+003,8.990121e+000
2.168021e+003,1.048756e+001
2.168985e+003,1.149531e+001
2.169949e+003,1.110758e+001
2.170913e+003,1.025109e+001
2.171877e+003,1.134924e+001
2.172842e+003,1.395188e+001
2.173806e+003,1.495081e+001
2.174770e+003,1.372560e+001
2.175734e+003,1.197725e+001
2.176699e+003,1.063152e+001
2.177663e+003,1.041248e+001
2.178627e+003,1.231697e+001
2.179591e+003,1.451514e+001
2.180556e+003,1.382395e+001
2.181520e+003,1.104546e+001
2.182484e+003,7.646594e+000
2.183448e+003,4.779635e+000
2.184413e+003,6.011594e+000
2.185377e+003,1.010352e+001
2.186341e+003,1.117902e+001
2.187305e+003,8.513099e+000
2.188270e+003,6.743224e+000
2.189234e+003,7.971925e+000
2.190198e+003,9.436147e+000
2.191162e+003,8.413960e+000
2.192126e+003,6.123813e+000
2.193091e+003,4.817111e+000
2.194055e+003,4.552503e+000
2.195019e+003,5.614354e+000
2.195983e+003,7.581285e+000
2.196948e+003,8.190528e+000
2.197912e+003,7.689406e+000
2.198876e+003,8.036838e+000
2.199840e+003,9.266513e+000
2.200804e+003,1.016299e+001
2.201769e+003,1.024755e+001
2.202733e+003,1.019056e+001
2.203697e+003,1.075269e+001
2.204661e+003,1.098368e+001
2.205626e+003,9.096074e+000
2.206590e+003,6.356883e+000
2.207554e+003,4.570928e+000
2.208518e+003,3.545081e+000
2.209483e+003,4.484429e+000
2.210447e+003,6.890439e+000
2.211411e+003,8.050151e+000
2.212375e+003,7.809886e+000
2.213340e+003,7.962790e+000
2.214304e+003,9.011491e+000
2.215268e+003,9.421445e+000
2.216232e+003,7.976886e+000
2.217197e+003,5.700706e+000
2.218161e+003,3.959182e+000
2.219125e+003,3.078050e+000
2.220089e+003,4.194097e+000
2.221053e+003,6.464786e+000
2.222018e+003,6.547349e+000
2.222982e+003,4.810807e+000
2.223946e+003,4.203639e+000
2.224910e+003,5.274070e+000
2.225875e+003,6.940000e+000
2.226839e+003,8.541766e+000
2.227803e+003,9.853847e+000
2.228767e+003,1.059846e+001
2.229731e+003,1.003331e+001
2.230696e+003,7.444152e+000
2.231660e+003,4.422788e+000
2.232624e+003,3.078351e+000
2.233588e+003,3.387153e+000
2.234553e+003,5.376668e+000
2.235517e+003,7.810557e+000
2.236481e+003,8.188157e+000
2.237445e+003,6.689645e+000
2.238410e+003,5.130626e+000
2.239374e+003,4.323548e+000
2.240338e+003,4.517364e+000
2.241302e+003,5.494000e+000
2.242267e+003,5.658978e+000
2.243231e+003,3.731528e+000
2.244195e+003,2.491441e+000
2.245159e+003,5.663938e+000
2.246124e+003,9.610156e+000
2.247088e+003,1.005538e+001
2.248052e+003,8.604169e+000
2.249016e+003,7.769027e+000
2.249980e+003,7.277316e+000
2.250945e+003,5.662658e+000
2.251909e+003,3.486039e+000
2.252873e+003,2.288096e+000
2.253837e+003,2.145619e+000
2.254802e+003,2.389421e+000
2.255766e+003,3.018027e+000
2.256730e+003,3.537978e+000
2.257694e+003,2.948047e+000
2.258658e+003,2.447024e+000
2.259623e+003,3.494269e+000
2.260587e+003,4.583121e+000
2.261551e+003,4.097007e+000
2.262515e+003,3.127231e+000
2.263480e+003,3.301661e+000
2.264444e+003,4.275826e+000
2.265408e+003,4.485198e+000
2.266372e+003,3.768649e+000
2.267337e+003,3.818934e+000
2.268301e+003,5.242246e+000
2.269265e+003,5.923539e+000
2.270229e+003,5.399978e+000
2.271194e+003,5.667722e+000
2.272158e+003,6.613187e+000
2.273122e+003,6.835792e+000
2.274086e+003,5.389194e+000
2.275051e+003,4.101998e+000
2.276015e+003,4.787627e+000
2.276979e+003,7.035499e+000
2.277943e+003,1.080258e+001
2.278907e+003,1.459466e+001
2.279872e+003,1.497725e+001
2.280836e+003,1.152778e+001
2.281800e+003,8.967706e+000
2.282764e+003,9.148334e+000
2.283729e+003,8.968232e+000
2.284693e+003,7.780540e+000
2.285657e+003,7.216733e+000
2.286621e+003,6.293477e+000
2.287585e+003,5.696128e+000
2.288550e+003,7.240186e+000
2.289514e+003,9.202191e+000
2.290478e+003,1.006866e+001
2.291442e+003,1.024798e+001
2.292407e+003,9.843053e+000
2.293371e+003,8.820188e+000
2.294335e+003,8.435006e+000
2.295299e+003,8.741698e+000
2.296264e+003,9.209327e+000
2.297228e+003,1.086840e+001
2.298192e+003,1.078906e+001
2.299156e+003,7.513473e+000
2.300121e+003,6.811597e+000
2.301085e+003,1.096866e+001
2.302049e+003,1.433248e+001
2.303013e+003,1.368842e+001
2.303978e+003,1.207773e+001
2.304942e+003,1.261179e+001
2.305906e+003,1.400064e+001
2.306870e+003,1.332123e+001
2.307834e+003,1.111714e+001
2.308799e+003,1.331289e+001
2.309763e+003,2.075483e+001
2.310727e+003,2.404898e+001
2.311691e+003,2.225261e+001
2.312656e+003,2.148148e+001
2.313620e+003,2.291048e+001
2.314584e+003,2.310307e+001
2.315548e+003,2.078624e+001
2.316512e+003,1.929203e+001
2.317477e+003,2.127107e+001
2.318441e+003,2.426450e+001
2.319405e+003,2.458688e+001
2.320369e+003,2.324592e+001
2.321334e+003,2.174571e+001
2.322298e+003,2.038103e+001
2.323262e+003,2.271690e+001
2.324226e+003,2.835177e+001
2.325191e+003,3.432512e+001
2.326155e+003,3.937584e+001
2.327119e+003,4.141452e+001
2.328083e+003,4.034791e+001
2.329048e+003,3.810861e+001
2.330012e+003,3.613815e+001
2.330976e+003,3.553407e+001
2.331940e+003,3.635440e+001
2.332905e+003,3.710423e+001
2.333869e+003,3.730405e+001
2.334833e+003,3.747389e+001
2.335797e+003,3.743198e+001
2.336761e+003,3.821726e+001
2.337726e+003,4.128048e+001
2.338690e+003,4.433361e+001
2.339654e+003,4.445106e+001
2.340618e+003,4.328742e+001
2.341583e+003,4.453551e+001
2.342547e+003,4.807362e+001
2.343511e+003,4.990810e+001
2.344475e+003,4.857136e+001
2.345439e+003,4.908568e+001
2.346404e+003,5.500935e+001
2.347368e+003,5.936671e+001
2.348332e+003,6.006439e+001
2.349296e+003,6.010153e+001
2.350261e+003,6.016600e+001
2.351225e+003,6.073008e+001
2.352189e+003,6.064693e+001
2.353153e+003,6.129350e+001
2.354118e+003,6.540716e+001
2.355082e+003,7.099260e+001
2.356046e+003,7.433894e+001
2.357010e+003,7.604905e+001
2.357975e+003,7.687516e+001
2.358939e+003,7.599209e+001
2.359903e+003,7.707543e+001
2.360867e+003,7.966565e+001
2.361832e+003,8.253381e+001
2.362796e+003,8.690708e+001
2.363760e+003,9.045789e+001
2.364724e+003,9.239173e+001
2.365688e+003,9.533648e+001
2.366653e+003,1.000922e+002
2.367617e+003,1.047673e+002
2.368581e+003,1.081857e+002
2.369545e+003,1.103112e+002
2.370510e+003,1.103699e+002
2.371474e+003,1.094598e+002
2.372438e+003,1.113100e+002
2.373402e+003,1.149742e+002
2.374366e+003,1.168867e+002
2.375331e+003,1.173893e+002
2.376295e+003,1.186655e+002
2.377259e+003,1.208562e+002
2.378223e+003,1.227442e+002
2.379188e+003,1.239161e+002
2.380152e+003,1.247670e+002
2.381116e+003,1.256242e+002
2.382080e+003,1.268092e+002
2.383045e+003,1.286232e+002
2.384009e+003,1.300243e+002
2.384973e+003,1.300671e+002
2.385937e+003,1.296935e+002
2.386902e+003,1.295423e+002
2.387866e+003,1.304818e+002
2.388830e+003,1.327169e+002
2.389794e+003,1.353756e+002
2.390759e+003,1.385785e+002
2.391723e+003,1.412849e+002
2.392687e+003,1.416200e+002
2.393651e+003,1.400594e+002
2.394615e+003,1.380346e+002
2.395580e+003,1.343577e+002
2.396544e+003,1.338904e+002
2.397508e+003,1.408457e+002
2.398472e+003,1.450072e+002
2.399437e+003,1.442726e+002
2.400401e+003,1.428957e+002
2.401365e+003,1.411542e+002
2.402329e+003,1.398322e+002
2.403293e+003,1.393350e+002
2.404258e+003,1.392688e+002
2.405222e+003,1.392345e+002
2.406186e+003,1.405961e+002
2.407150e+003,1.462189e+002
2.408115e+003,1.546320e+002
2.409079e+003,1.568781e+002
2.410043e+003,1.532889e+002
2.411007e+003,1.531676e+002
2.411972e+003,1.564902e+002
2.412936e+003,1.584743e+002
2.413900e+003,1.583627e+002
2.414864e+003,1.586390e+002
2.415829e+003,1.602751e+002
2.416793e+003,1.616116e+002
2.417757e+003,1.615128e+002
2.418721e+003,1.605126e+002
2.419686e+003,1.591886e+002
2.420650e+003,1.578562e+002
2.421614e+003,1.560205e+002
2.422578e+003,1.548626e+002
2.423542e+003,1.552189e+002
2.424507e+003,1.570274e+002
2.425471e+003,1.630914e+002
2.426435e+003,1.691954e+002
2.427399e+003,1.680072e+002
2.428364e+003,1.622071e+002
2.429328e+003,1.592176e+002
2.430292e+003,1.596956e+002
2.431256e+003,1.590738e+002
2.432220e+003,1.562536e+002
2.433185e+003,1.543540e+002
2.434149e+003,1.526584e+002
2.435113e+003,1.527186e+002
2.436077e+003,1.560679e+002
2.437042e+003,1.590128e+002
2.438006e+003,1.614948e+002
2.438970e+003,1.617353e+002
2.439934e+003,1.583349e+002
2.440899e+003,1.542498e+002
2.441863e+003,1.519793e+002
2.442827e+003,1.506390e+002
2.443791e+003,1.483013e+002
2.444756e+003,1.455657e+002
2.445720e+003,1.458470e+002
2.446684e+003,1.480783e+002
2.447648e+003,1.461399e+002
2.448613e+003,1.415145e+002
2.449577e+003,1.397266e+002
2.450541e+003,1.402726e+002
2.451505e+003,1.395329e+002
2.452469e+003,1.375240e+002
2.453434e+003,1.369090e+002
2.454398e+003,1.375613e+002
2.455362e+003,1.365947e+002
2.456326e+003,1.337662e+002
2.457291e+003,1.315674e+002
2.458255e+003,1.300313e+002
2.459219e+003,1.295590e+002
2.460183e+003,1.305992e+002
2.461147e+003,1.309718e+002
2.462112e+003,1.304968e+002
2.463076e+003,1.301660e+002
2.464040e+003,1.303799e+002
2.465004e+003,1.295767e+002
2.465969e+003,1.265277e+002
2.466933e+003,1.228114e+002
2.467897e+003,1.197448e+002
2.468861e+003,1.168766e+002
2.469826e+003,1.155592e+002
2.470790e+003,1.163213e+002
2.471754e+003,1.152881e+002
2.472718e+003,1.125597e+002
2.473683e+003,1.128327e+002
2.474647e+003,1.157412e+002
2.475611e+003,1.169794e+002
2.476575e+003,1.161280e+002
2.477540e+003,1.145569e+002
2.478504e+003,1.126345e+002
2.479468e+003,1.104987e+002
2.480432e+003,1.083633e+002
2.481396e+003,1.066748e+002
2.482361e+003,1.064388e+002
2.483325e+003,1.067373e+002
2.484289e+003,1.051646e+002
2.485253e+003,1.034353e+002
2.486218e+003,1.042087e+002
2.487182e+003,1.054543e+002
2.488146e+003,1.054205e+002
2.489110e+003,1.046859e+002
2.490074e+003,1.037470e+002
2.491039e+003,1.031451e+002
2.492003e+003,1.034829e+002
2.492967e+003,1.038769e+002
2.493931e+003,1.030977e+002
2.494896e+003,1.016990e+002
2.495860e+003,1.003620e+002
2.496824e+003,9.901022e+001
2.497788e+003,9.868797e+001
2.498753e+003,9.930497e+001
2.499717e+003,9.961452e+001
2.500681e+003,9.950364e+001
2.501645e+003,9.950706e+001
2.502610e+003,9.964719e+001
2.503574e+003,9.968378e+001
2.504538e+003,9.979001e+001
2.505502e+003,1.005327e+002
2.506467e+003,1.023734e+002
2.507431e+003,1.034270e+002
2.508395e+003,1.003689e+002
2.509359e+003,9.699084e+001
2.510323e+003,9.894596e+001
2.511288e+003,1.024510e+002
2.512252e+003,1.021486e+002
2.513216e+003,9.994616e+001
2.514180e+003,9.980325e+001
2.515145e+003,1.011418e+002
2.516109e+003,1.008040e+002
2.517073e+003,9.858077e+001
2.518037e+003,9.752209e+001
2.519001e+003,9.825970e+001
2.519966e+003,9.878802e+001
2.520930e+003,9.947379e+001
2.521894e+003,9.862798e+001
2.522858e+003,9.534309e+001
2.523823e+003,9.438250e+001
2.524787e+003,9.711459e+001
2.525751e+003,1.001400e+002
2.526715e+003,1.019956e+002
2.527680e+003,1.023622e+002
2.528644e+003,1.010941e+002
2.529608e+003,9.954260e+001
2.530572e+003,9.862609e+001
2.531537e+003,9.784420e+001
2.532501e+003,9.749804e+001
2.533465e+003,9.719323e+001
2.534429e+003,9.573661e+001
2.535394e+003,9.487342e+001
2.536358e+003,9.707967e+001
2.537322e+003,9.994576e+001
2.538286e+003,1.004908e+002
2.539250e+003,9.919925e+001
2.540215e+003,9.729862e+001
2.541179e+003,9.499454e+001
2.542143e+003,9.352790e+001
2.543107e+003,9.360928e+001
2.544072e+003,9.520126e+001
2.545036e+003,9.827376e+001
2.546000e+003,9.985869e+001
2.546964e+003,9.952332e+001
2.547928e+003,9.870776e+001
2.548893e+003,9.767600e+001
2.549857e+003,9.693542e+001
2.550821e+003,9.681416e+001
2.551785e+003,9.633044e+001
2.552750e+003,9.484934e+001
2.553714e+003,9.312188e+001
2.554678e+003,9.196252e+001
2.555642e+003,9.118894e+001
2.556607e+003,8.945051e+001
2.557571e+003,8.801595e+001
2.558535e+003,8.911061e+001
2.559499e+003,9.041534e+001
2.560464e+003,9.086574e+001
2.561428e+003,9.073006e+001
2.562392e+003,8.870424e+001
2.563356e+003,8.596056e+001
2.564321e+003,8.548554e+001
2.565285e+003,8.672480e+001
2.566249e+003,8.686296e+001
2.567213e+003,8.550319e+001
2.568177e+003,8.510610e+001
2.569142e+003,8.592226e+001
2.570106e+003,8.315387e+001
2.571070e+003,7.755434e+001
2.572034e+003,7.655123e+001
2.572999e+003,8.024678e+001
2.573963e+003,8.119183e+001
2.574927e+003,7.779688e+001
2.575891e+003,7.578149e+001
2.576855e+003,7.725194e+001
2.577820e+003,7.837354e+001
2.578784e+003,7.799093e+001
2.579748e+003,7.715944e+001
2.580712e+003,7.559472e+001
2.581677e+003,7.467415e+001
2.582641e+003,7.446486e+001
2.583605e+003,7.407556e+001
2.584569e+003,7.415269e+001
2.585534e+003,7.339867e+001
2.586498e+003,7.030913e+001
2.587462e+003,6.769687e+001
2.588426e+003,6.851495e+001
2.589391e+003,7.025500e+001
2.590355e+003,6.861395e+001
2.591319e+003,6.499295e+001
2.592283e+003,6.316771e+001
2.593248e+003,6.286156e+001
2.594212e+003,6.381766e+001
2.595176e+003,6.519013e+001
2.596140e+003,6.500112e+001
2.597104e+003,6.376192e+001
2.598069e+003,6.259069e+001
2.599033e+003,6.182235e+001
2.599997e+003,6.257559e+001
2.600961e+003,6.466677e+001
2.601926e+003,6.384234e+001
2.602890e+003,5.786653e+001
2.603854e+003,5.549855e+001
2.604818e+003,5.927899e+001
2.605782e+003,6.086154e+001
2.606747e+003,5.995097e+001
2.607711e+003,5.820346e+001
2.608675e+003,5.563838e+001
2.609639e+003,5.505051e+001
2.610604e+003,5.748875e+001
2.611568e+003,5.963114e+001
2.612532e+003,5.938703e+001
2.613496e+003,5.839840e+001
2.614461e+003,5.795694e+001
2.615425e+003,5.698481e+001
2.616389e+003,5.374320e+001
2.617353e+003,5.088365e+001
2.618318e+003,5.161760e+001
2.619282e+003,5.283779e+001
2.620246e+003,5.237815e+001
2.621210e+003,5.208336e+001
2.622175e+003,5.272965e+001
2.623139e+003,5.331123e+001
2.624103e+003,5.275991e+001
2.625067e+003,5.149617e+001
2.626031e+003,5.207117e+001
2.626996e+003,5.480441e+001
2.627960e+003,5.466227e+001
2.628924e+003,5.160855e+001
2.629888e+003,5.066938e+001
2.630853e+003,5.095469e+001
2.631817e+003,4.962369e+001
2.632781e+003,4.843660e+001
2.633745e+003,4.981067e+001
2.634709e+003,5.217219e+001
2.635674e+003,5.296180e+001
2.636638e+003,5.199694e+001
2.637602e+003,5.072352e+001
2.638566e+003,5.049673e+001
2.639531e+003,5.100362e+001
2.640495e+003,5.083581e+001
2.641459e+003,5.081947e+001
2.642423e+003,5.204292e+001
2.643388e+003,5.127563e+001
2.644352e+003,4.721225e+001
2.645316e+003,4.438060e+001
2.646280e+003,4.435301e+001
2.647245e+003,4.533608e+001
2.648209e+003,4.694573e+001
2.649173e+003,4.804559e+001
2.650137e+003,4.631676e+001
2.651102e+003,4.459365e+001
2.652066e+003,4.578000e+001
2.653030e+003,4.604820e+001
2.653994e+003,4.329806e+001
2.654958e+003,4.106261e+001
2.655923e+003,4.157105e+001
2.656887e+003,4.362927e+001
2.657851e+003,4.638945e+001
2.658815e+003,4.785004e+001
2.659780e+003,4.632520e+001
2.660744e+003,4.356628e+001
2.661708e+003,4.255368e+001
2.662672e+003,4.290929e+001
2.663636e+003,4.308678e+001
2.664601e+003,4.306333e+001
2.665565e+003,4.300171e+001
2.666529e+003,4.279762e+001
2.667493e+003,4.207087e+001
2.668458e+003,4.120409e+001
2.669422e+003,4.036438e+001
2.670386e+003,3.923164e+001
2.671350e+003,3.851807e+001
2.672315e+003,3.902647e+001
2.673279e+003,3.994042e+001
2.674243e+003,4.049779e+001
2.675207e+003,3.890592e+001
2.676172e+003,3.467266e+001
2.677136e+003,3.177534e+001
2.678100e+003,3.067310e+001
2.679064e+003,3.186759e+001
2.680029e+003,3.445325e+001
2.680993e+003,3.605750e+001
2.681957e+003,3.655590e+001
2.682921e+003,3.604617e+001
2.683885e+003,3.426298e+001
2.684850e+003,3.320426e+001
2.685814e+003,3.549507e+001
2.686778e+003,3.652159e+001
2.687742e+003,3.117132e+001
2.688707e+003,2.786515e+001
2.689671e+003,2.839382e+001
2.690635e+003,2.977287e+001
2.691599e+003,3.298686e+001
2.692563e+003,3.476981e+001
2.693528e+003,3.367218e+001
2.694492e+003,3.089986e+001
2.695456e+003,2.709229e+001
2.696420e+003,2.442382e+001
2.697385e+003,2.543892e+001
2.698349e+003,2.764388e+001
2.699313e+003,2.903633e+001
2.700277e+003,2.958635e+001
2.701242e+003,2.722065e+001
2.702206e+003,2.477131e+001
2.703170e+003,2.543652e+001
2.704134e+003,2.720906e+001
2.705099e+003,2.976993e+001
2.706063e+003,3.117398e+001
2.707027e+003,2.837465e+001
2.707991e+003,2.361716e+001
2.708956e+003,2.097300e+001
2.709920e+003,1.974179e+001
2.710884e+003,1.975854e+001
2.711848e+003,2.102779e+001
2.712813e+003,2.304226e+001
2.713777e+003,2.522632e+001
2.714741e+003,2.505673e+001
2.715705e+003,2.262687e+001
2.716669e+003,2.041410e+001
2.717634e+003,1.920485e+001
2.718598e+003,1.870584e+001
2.719562e+003,1.930595e+001
2.720526e+003,1.948233e+001
2.721490e+003,1.740851e+001
2.722455e+003,1.606026e+001
2.723419e+003,1.656129e+001
2.724383e+003,1.808142e+001
2.725347e+003,2.037106e+001
2.726312e+003,2.151023e+001
2.727276e+003,2.074399e+001
2.728240e+003,1.893513e+001
2.729204e+003,1.756259e+001
2.730169e+003,1.686472e+001
2.731133e+003,1.578224e+001
2.732097e+003,1.481982e+001
2.733061e+003,1.427118e+001
2.734026e+003,1.493049e+001
2.734990e+003,2.088591e+001
2.735954e+003,2.277222e+001
2.736918e+003,1.776528e+001
2.737883e+003,1.541273e+001
2.738847e+003,1.697222e+001
2.739811e+003,1.899769e+001
2.740775e+003,2.031916e+001
2.741740e+003,1.908014e+001
2.742704e+003,1.521145e+001
2.743668e+003,1.226207e+001
2.744632e+003,1.133030e+001
2.745596e+003,1.132991e+001
2.746561e+003,1.114952e+001
2.747525e+003,1.044866e+001
2.748489e+003,1.087437e+001
2.749453e+003,1.138765e+001
2.750417e+003,1.206058e+001
2.751382e+003,1.287717e+001
2.752346e+003,1.323403e+001
2.753310e+003,1.321648e+001
2.754274e+003,1.290961e+001
2.755239e+003,1.230243e+001
2.756203e+003,1.166801e+001
2.757167e+003,1.095349e+001
2.758131e+003,9.427678e+000
2.759096e+003,8.316159e+000
2.760060e+003,9.356719e+000
2.761024e+003,1.039544e+001
2.761988e+003,9.241504e+000
2.762953e+003,8.981963e+000
2.763917e+003,1.195728e+001
2.764881e+003,1.444014e+001
2.765845e+003,1.269239e+001
2.766810e+003,9.646041e+000
2.767774e+003,1.003449e+001
2.768738e+003,1.191023e+001
2.769702e+003,1.175226e+001
2.770667e+003,1.102591e+001
2.771631e+003,9.945178e+000
2.772595e+003,8.393357e+000
2.773559e+003,8.074067e+000
2.774523e+003,8.641841e+000
2.775488e+003,9.645391e+000
2.776452e+003,1.152307e+001
2.777416e+003,1.278025e+001
2.778380e+003,1.144647e+001
2.779344e+003,9.863893e+000
2.780309e+003,9.816577e+000
2.781273e+003,8.881797e+000
2.782237e+003,9.002660e+000
2.783201e+003,1.174387e+001
2.784166e+003,1.310823e+001
2.785130e+003,1.151481e+001
2.786094e+003,9.304679e+000
2.787058e+003,9.322553e+000
2.788023e+003,1.074715e+001
2.788987e+003,9.790261e+000
2.789951e+003,7.023293e+000
2.790915e+003,6.707000e+000
2.791880e+003,8.442197e+000
2.792844e+003,8.106458e+000
2.793808e+003,7.097360e+000
2.794772e+003,9.318101e+000
2.795737e+003,1.194362e+001
2.796701e+003,1.141970e+001
2.797665e+003,9.541390e+000
2.798629e+003,8.914536e+000
2.799594e+003,9.788760e+000
2.800558e+003,1.044654e+001
2.801522e+003,1.056646e+001
2.802486e+003,1.156600e+001
2.803450e+003,1.252097e+001
2.804415e+003,1.259054e+001
2.805379e+003,1.204487e+001
2.806343e+003,1.115372e+001
2.807307e+003,1.144089e+001
2.808271e+003,9.623809e+000
2.809236e+003,5.305360e+000
2.810200e+003,5.044393e+000
2.811164e+003,9.158406e+000
2.812128e+003,1.070038e+001
2.813093e+003,9.090976e+000
2.814057e+003,1.043174e+001
2.815021e+003,1.299735e+001
2.815985e+003,1.193819e+001
2.816950e+003,9.604344e+000
2.817914e+003,9.110213e+000
2.818878e+003,9.450776e+000
2.819842e+003,9.635810e+000
2.820807e+003,9.995625e+000
2.821771e+003,9.942096e+000
2.822735e+003,8.859744e+000
2.823699e+003,8.348294e+000
2.824664e+003,9.709144e+000
2.825628e+003,1.025943e+001
2.826592e+003,1.026246e+001
2.827556e+003,8.901704e+000
2.828521e+003,4.990514e+000
2.829485e+003,2.651204e+000
2.830449e+003,2.903437e+000
2.831413e+003,5.919562e+000
2.832377e+003,9.824594e+000
2.833342e+003,1.003807e+001
2.834306e+003,6.979076e+000
2.835270e+003,5.705712e+000
2.836234e+003,7.283523e+000
2.837198e+003,8.812614e+000
2.838163e+003,1.040284e+001
2.839127e+003,1.116932e+001
2.840091e+003,1.101502e+001
2.841055e+003,1.104111e+001
2.842020e+003,1.091618e+001
2.842984e+003,1.075511e+001
2.843948e+003,1.058901e+001
2.844912e+003,9.078295e+000
2.845877e+003,6.481987e+000
2.846841e+003,5.562298e+000
2.847805e+003,7.141133e+000
2.848769e+003,7.824194e+000
2.849734e+003,6.675579e+000
2.850698e+003,5.609827e+000
2.851662e+003,4.670279e+000
2.852626e+003,2.592536e+000
2.853591e+003,0.000000e+000
2.854555e+003,2.683830e-002
2.855519e+003,2.277287e+000
2.856483e+003,3.675912e+000
2.857448e+003,3.445131e+000
2.858412e+003,2.895847e+000
2.859376e+003,2.877435e+000
2.860340e+003,3.763420e+000
2.861304e+003,5.668553e+000
2.862269e+003,6.760931e+000
2.863233e+003,6.404556e+000
2.864197e+003,5.644116e+000
2.865161e+003,5.484364e+000
2.866125e+003,5.011361e+000
2.867090e+003,4.029924e+000
2.868054e+003,5.491459e+000
2.869018e+003,9.363988e+000
2.869982e+003,1.042022e+001
2.870947e+003,7.819326e+000
2.871911e+003,7.197548e+000
2.872875e+003,8.189516e+000
2.873839e+003,8.131662e+000
2.874804e+003,7.238959e+000
2.875768e+003,7.189130e+000
2.876732e+003,8.024298e+000
2.877696e+003,8.206490e+000
2.878661e+003,7.564935e+000
2.879625e+003,6.884306e+000
2.880589e+003,6.362102e+000
2.881553e+003,5.819623e+000
2.882518e+003,5.175437e+000
2.883482e+003,6.944321e+000
2.884446e+003,1.203741e+001
2.885410e+003,1.354674e+001
2.886375e+003,1.154544e+001
2.887339e+003,1.151567e+001
2.888303e+003,1.352434e+001
2.889267e+003,1.486466e+001
2.890231e+003,1.510047e+001
2.891196e+003,1.463045e+001
2.892160e+003,1.385304e+001
2.893124e+003,1.492339e+001
2.894088e+003,1.847335e+001
2.895052e+003,1.973031e+001
2.896017e+003,1.848274e+001
2.896981e+003,1.783489e+001
2.897945e+003,1.787062e+001
2.898909e+003,1.877095e+001
2.899874e+003,2.002246e+001
2.900838e+003,1.964627e+001
2.901802e+003,1.830912e+001
2.902766e+003,1.921757e+001
2.903731e+003,2.254433e+001
2.904695e+003,2.485874e+001
2.905659e+003,2.602592e+001
2.906623e+003,2.765769e+001
2.907588e+003,2.970179e+001
2.908552e+003,3.127603e+001
2.909516e+003,3.241482e+001
2.910480e+003,3.349281e+001
2.911445e+003,3.428013e+001
2.912409e+003,3.346038e+001
2.913373e+003,3.204515e+001
2.914337e+003,3.358242e+001
2.915302e+003,3.756645e+001
2.916266e+003,3.959209e+001
2.917230e+003,3.987711e+001
2.918194e+003,4.137879e+001
2.919158e+003,4.361825e+001
2.920123e+003,4.423733e+001
2.921087e+003,4.402082e+001
2.922051e+003,4.511094e+001
2.923015e+003,4.663206e+001
2.923979e+003,4.582017e+001
2.924944e+003,4.431563e+001
2.925908e+003,4.676457e+001
2.926872e+003,5.160020e+001
2.927836e+003,5.374112e+001
2.928801e+003,5.401642e+001
2.929765e+003,5.646895e+001
2.930729e+003,5.950936e+001
2.931693e+003,5.908917e+001
2.932658e+003,5.756130e+001
2.933622e+003,5.862656e+001
2.934586e+003,6.089272e+001
2.935550e+003,6.148725e+001
2.936515e+003,6.212545e+001
2.937479e+003,6.556857e+001
2.938443e+003,7.020149e+001
2.939407e+003,7.247734e+001
2.940372e+003,7.314001e+001
2.941336e+003,7.345306e+001
2.942300e+003,7.342441e+001
2.943264e+003,7.282239e+001
2.944229e+003,7.214600e+001
2.945193e+003,7.210497e+001
2.946157e+003,7.186508e+001
2.947121e+003,7.042351e+001
2.948085e+003,6.924914e+001
2.949050e+003,6.998307e+001
2.950014e+003,7.238313e+001
2.950978e+003,7.773312e+001
2.951942e+003,8.214424e+001
2.952906e+003,7.939423e+001
2.953871e+003,7.631142e+001
2.954835e+003,7.852865e+001
2.955799e+003,8.107387e+001
2.956763e+003,8.117509e+001
2.957728e+003,8.144270e+001
2.958692e+003,8.366401e+001
2.959656e+003,8.432537e+001
2.960620e+003,7.985561e+001
2.961585e+003,7.609189e+001
2.962549e+003,7.985086e+001
2.963513e+003,8.420527e+001
2.964477e+003,8.609249e+001
2.965442e+003,8.667746e+001
2.966406e+003,8.598360e+001
2.967370e+003,8.540752e+001
2.968334e+003,8.541297e+001
2.969299e+003,8.593549e+001
2.970263e+003,8.688744e+001
2.971227e+003,8.736122e+001
2.972191e+003,8.663100e+001
2.973156e+003,8.652737e+001
2.974120e+003,8.825745e+001
2.975084e+003,9.022408e+001
2.976048e+003,9.251846e+001
2.977012e+003,9.379438e+001
2.977977e+003,9.386522e+001
2.978941e+003,9.425256e+001
2.979905e+003,9.513086e+001
2.980869e+003,9.462168e+001
2.981833e+003,9.241547e+001
2.982798e+003,9.158522e+001
2.983762e+003,9.321589e+001
2.984726e+003,9.594957e+001
2.985690e+003,1.000594e+002
2.986655e+003,1.033795e+002
2.987619e+003,1.057186e+002
2.988583e+003,1.045467e+002
2.989547e+003,1.010945e+002
2.990512e+003,1.008604e+002
2.991476e+003,1.035295e+002
2.992440e+003,1.045071e+002
2.993404e+003,1.034081e+002
2.994369e+003,1.040251e+002
2.995333e+003,1.063186e+002
2.996297e+003,1.065670e+002
2.997261e+003,1.054793e+002
2.998226e+003,1.085590e+002
2.999190e+003,1.132020e+002
3.000154e+003,1.126772e+002
3.001118e+003,1.093159e+002
3.002083e+003,1.077130e+002
3.003047e+003,1.078267e+002
3.004011e+003,1.083955e+002
3.004975e+003,1.092151e+002
3.005939e+003,1.096421e+002
3.006904e+003,1.102945e+002
3.007868e+003,1.139481e+002
3.008832e+003,1.177876e+002
3.009796e+003,1.162840e+002
3.010760e+003,1.143160e+002
3.011725e+003,1.182496e+002
3.012689e+003,1.227867e+002
3.013653e+003,1.238378e+002
3.014617e+003,1.221455e+002
3.015582e+003,1.179587e+002
3.016546e+003,1.151277e+002
3.017510e+003,1.201612e+002
3.018474e+003,1.257510e+002
3.019439e+003,1.248141e+002
3.020403e+003,1.225056e+002
3.021367e+003,1.200970e+002
3.022331e+003,1.198251e+002
3.023296e+003,1.227574e+002
3.024260e+003,1.254889e+002
3.025224e+003,1.264246e+002
3.026188e+003,1.281066e+002
3.027153e+003,1.322569e+002
3.028117e+003,1.349215e+002
3.029081e+003,1.319378e+002
3.030045e+003,1.310191e+002
3.031010e+003,1.342536e+002
3.031974e+003,1.368049e+002
3.032938e+003,1.381190e+002
3.033902e+003,1.386566e+002
3.034866e+003,1.387150e+002
3.035831e+003,1.392586e+002
3.036795e+003,1.403872e+002
3.037759e+003,1.408739e+002
3.038723e+003,1.403417e+002
3.039688e+003,1.398177e+002
3.040652e+003,1.389677e+002
3.041616e+003,1.419252e+002
3.042580e+003,1.477319e+002
3.043544e+003,1.507371e+002
3.044509e+003,1.512806e+002
3.045473e+003,1.513174e+002
3.046437e+003,1.511225e+002
3.047401e+003,1.498956e+002
3.048366e+003,1.485606e+002
3.049330e+003,1.497354e+002
3.050294e+003,1.527321e+002
3.051258e+003,1.555965e+002
3.052223e+003,1.577567e+002
3.053187e+003,1.568874e+002
3.054151e+003,1.555440e+002
3.055115e+003,1.577380e+002
3.056080e+003,1.602457e+002
3.057044e+003,1.591195e+002
3.058008e+003,1.579379e+002
3.058972e+003,1.599852e+002
3.059937e+003,1.627728e+002
3.060901e+003,1.633418e+002
3.061865e+003,1.629723e+002
3.062829e+003,1.619798e+002
3.063793e+003,1.621902e+002
3.064758e+003,1.667377e+002
3.065722e+003,1.688927e+002
3.066686e+003,1.660116e+002
3.067650e+003,1.650938e+002
3.068615e+003,1.685878e+002
3.069579e+003,1.690737e+002
3.070543e+003,1.629953e+002
3.071507e+003,1.604821e+002
3.072471e+003,1.686630e+002
3.073436e+003,1.739770e+002
3.074400e+003,1.738241e+002
3.075364e+003,1.736906e+002
3.076328e+003,1.739355e+002
3.077293e+003,1.743502e+002
3.078257e+003,1.749187e+002
3.079221e+003,1.761552e+002
3.080185e+003,1.775944e+002
3.081150e+003,1.766382e+002
3.082114e+003,1.734335e+002
3.083078e+003,1.736920e+002
3.084042e+003,1.770700e+002
3.085007e+003,1.788288e+002
3.085971e+003,1.790776e+002
3.086935e+003,1.769634e+002
3.087899e+003,1.745680e+002
3.088864e+003,1.751635e+002
3.089828e+003,1.776837e+002
3.090792e+003,1.808948e+002
3.091756e+003,1.832805e+002
3.092720e+003,1.825082e+002
3.093685e+003,1.813828e+002
3.094649e+003,1.863310e+002
3.095613e+003,1.912914e+002
3.096577e+003,1.879095e+002
3.097542e+003,1.840239e+002
3.098506e+003,1.856140e+002
3.099470e+003,1.861339e+002
3.100434e+003,1.829128e+002
3.101398e+003,1.819617e+002
3.102363e+003,1.861942e+002
3.103327e+003,1.891953e+002
3.104291e+003,1.865368e+002
3.105255e+003,1.853741e+002
3.106220e+003,1.911711e+002
3.107184e+003,1.943024e+002
3.108148e+003,1.939796e+002
3.109112e+003,1.923531e+002
3.110077e+003,1.903240e+002
3.111041e+003,1.921530e+002
3.112005e+003,1.972452e+002
3.112969e+003,2.009615e+002
3.113934e+003,2.021469e+002
3.114898e+003,2.007425e+002
3.115862e+003,1.972097e+002
3.116826e+003,1.948890e+002
3.117791e+003,1.938083e+002
3.118755e+003,1.944390e+002
3.119719e+003,1.960703e+002
3.120683e+003,1.978532e+002
3.121647e+003,1.994191e+002
3.122612e+003,1.999000e+002
3.123576e+003,2.006443e+002
3.124540e+003,2.031717e+002
3.125504e+003,2.060298e+002
3.126469e+003,2.071483e+002
3.127433e+003,2.073417e+002
3.128397e+003,2.069979e+002
3.129361e+003,2.069567e+002
3.130325e+003,2.080756e+002
3.131290e+003,2.090335e+002
3.132254e+003,2.094005e+002
3.133218e+003,2.098702e+002
3.134182e+003,2.107595e+002
3.135147e+003,2.126152e+002
3.136111e+003,2.156867e+002
3.137075e+003,2.182940e+002
3.138039e+003,2.198460e+002
3.139004e+003,2.204064e+002
3.139968e+003,2.198696e+002
3.140932e+003,2.197447e+002
3.141896e+003,2.201746e+002
3.142861e+003,2.217510e+002
3.143825e+003,2.237358e+002
3.144789e+003,2.236537e+002
3.145753e+003,2.222504e+002
3.146718e+003,2.230063e+002
3.147682e+003,2.253112e+002
3.148646e+003,2.273354e+002
3.149610e+003,2.285504e+002
3.150574e+003,2.261044e+002
3.151539e+003,2.234827e+002
3.152503e+003,2.258437e+002
3.153467e+003,2.291593e+002
3.154431e+003,2.301916e+002
3.155396e+003,2.303187e+002
3.156360e+003,2.303773e+002
3.157324e+003,2.311100e+002
3.158288e+003,2.333591e+002
3.159252e+003,2.352112e+002
3.160217e+003,2.342753e+002
3.161181e+003,2.345455e+002
3.162145e+003,2.376630e+002
3.163109e+003,2.388927e+002
3.164074e+003,2.377209e+002
3.165038e+003,2.376799e+002
3.166002e+003,2.392250e+002
3.166966e+003,2.401029e+002
3.167931e+003,2.398978e+002
3.168895e+003,2.407678e+002
3.169859e+003,2.427772e+002
3.170823e+003,2.419103e+002
3.171788e+003,2.391533e+002
3.172752e+003,2.409872e+002
3.173716e+003,2.448810e+002
3.174680e+003,2.463523e+002
3.175645e+003,2.459235e+002
3.176609e+003,2.438421e+002
3.177573e+003,2.419647e+002
3.178537e+003,2.418075e+002
3.179501e+003,2.441429e+002
3.180466e+003,2.516205e+002
3.181430e+003,2.578706e+002
3.182394e+003,2.549296e+002
3.183358e+003,2.512215e+002
3.184323e+003,2.497056e+002
3.185287e+003,2.500421e+002
3.186251e+003,2.521821e+002
3.187215e+003,2.527352e+002
3.188179e+003,2.509771e+002
3.189144e+003,2.508172e+002
3.190108e+003,2.537278e+002
3.191072e+003,2.559383e+002
3.192036e+003,2.570706e+002
3.193001e+003,2.557700e+002
3.193965e+003,2.526179e+002
3.194929e+003,2.515602e+002
3.195893e+003,2.526161e+002
3.196858e+003,2.566208e+002
3.197822e+003,2.611199e+002
3.198786e+003,2.614766e+002
3.199750e+003,2.598400e+002
3.200715e+003,2.591729e+002
3.201679e+003,2.591133e+002
3.202643e+003,2.594394e+002
3.203607e+003,2.594357e+002
3.204572e+003,2.574956e+002
3.205536e+003,2.564287e+002
3.206500e+003,2.578789e+002
3.207464e+003,2.592023e+002
3.208428e+003,2.595706e+002
3.209393e+003,2.609141e+002
3.210357e+003,2.638420e+002
3.211321e+003,2.648651e+002
3.212285e+003,2.617934e+002
3.213250e+003,2.618875e+002
3.214214e+003,2.664012e+002
3.215178e+003,2.678642e+002
3.216142e+003,2.668147e+002
3.217106e+003,2.664349e+002
3.218071e+003,2.670061e+002
3.219035e+003,2.686187e+002
3.219999e+003,2.706335e+002
3.220963e+003,2.718887e+002
3.221928e+003,2.727667e+002
3.222892e+003,2.741274e+002
3.223856e+003,2.752685e+002
3.224820e+003,2.746839e+002
3.225785e+003,2.737684e+002
3.226749e+003,2.730019e+002
3.227713e+003,2.737258e+002
3.228677e+003,2.769498e+002
3.229642e+003,2.771562e+002
3.230606e+003,2.726742e+002
3.231570e+003,2.709854e+002
3.232534e+003,2.756207e+002
3.233499e+003,2.796687e+002
3.234463e+003,2.804035e+002
3.235427e+003,2.829162e+002
3.236391e+003,2.869964e+002
3.237355e+003,2.861868e+002
3.238320e+003,2.824218e+002
3.239284e+003,2.824763e+002
3.240248e+003,2.846084e+002
3.241212e+003,2.831145e+002
3.242177e+003,2.803809e+002
3.243141e+003,2.803528e+002
3.244105e+003,2.816334e+002
3.245069e+003,2.815492e+002
3.246033e+003,2.813910e+002
3.246998e+003,2.817614e+002
3.247962e+003,2.840323e+002
3.248926e+003,2.901652e+002
3.249890e+003,2.926885e+002
3.250855e+003,2.895648e+002
3.251819e+003,2.883990e+002
3.252783e+003,2.919337e+002
3.253747e+003,2.947258e+002
3.254712e+003,2.946246e+002
3.255676e+003,2.948992e+002
3.256640e+003,2.957092e+002
3.257604e+003,2.970081e+002
3.258569e+003,2.980896e+002
3.259533e+003,2.948422e+002
3.260497e+003,2.912135e+002
3.261461e+003,2.961272e+002
3.262426e+003,3.038668e+002
3.263390e+003,3.068427e+002
3.264354e+003,3.066295e+002
3.265318e+003,3.045830e+002
3.266282e+003,3.030036e+002
3.267247e+003,3.053575e+002
3.268211e+003,3.072817e+002
3.269175e+003,3.063133e+002
3.270139e+003,3.065850e+002
3.271104e+003,3.088965e+002
3.272068e+003,3.112716e+002
3.273032e+003,3.130481e+002
3.273996e+003,3.140843e+002
3.274960e+003,3.144253e+002
3.275925e+003,3.161343e+002
3.276889e+003,3.191820e+002
3.277853e+003,3.195665e+002
3.278817e+003,3.180992e+002
3.279782e+003,3.161283e+002
3.280746e+003,3.147211e+002
3.281710e+003,3.155437e+002
3.282674e+003,3.173146e+002
3.283639e+003,3.189891e+002
3.284603e+003,3.203712e+002
3.285567e+003,3.212661e+002
3.286531e+003,3.218635e+002
3.287496e+003,3.216833e+002
3.288460e+003,3.225406e+002
3.289424e+003,3.251400e+002
3.290388e+003,3.279839e+002
3.291353e+003,3.307141e+002
3.292317e+003,3.316437e+002
3.293281e+003,3.308021e+002
3.294245e+003,3.289475e+002
3.295209e+003,3.269043e+002
3.296174e+003,3.273588e+002
3.297138e+003,3.293754e+002
3.298102e+003,3.280604e+002
3.299066e+003,3.262073e+002
3.300031e+003,3.307221e+002
3.300995e+003,3.355773e+002
3.301959e+003,3.343161e+002
3.302923e+003,3.322433e+002
3.303887e+003,3.316112e+002
3.304852e+003,3.306939e+002
3.305816e+003,3.285118e+002
3.306780e+003,3.289056e+002
3.307744e+003,3.353556e+002
3.308709e+003,3.395930e+002
3.309673e+003,3.408884e+002
3.310637e+003,3.403919e+002
3.311601e+003,3.389618e+002
3.312566e+003,3.401006e+002
3.313530e+003,3.425862e+002
3.314494e+003,3.431420e+002
3.315458e+003,3.419142e+002
3.316423e+003,3.392874e+002
3.317387e+003,3.372562e+002
3.318351e+003,3.404602e+002
3.319315e+003,3.442243e+002
3.320280e+003,3.426265e+002
3.321244e+003,3.420077e+002
3.322208e+003,3.451308e+002
3.323172e+003,3.468934e+002
3.324136e+003,3.462296e+002
3.325101e+003,3.466319e+002
3.326065e+003,3.489528e+002
3.327029e+003,3.503584e+002
3.327993e+003,3.502167e+002
3.328958e+003,3.513284e+002
3.329922e+003,3.534234e+002
3.330886e+003,3.545238e+002
3.331850e+003,3.550423e+002
3.332814e+003,3.551545e+002
3.333779e+003,3.558961e+002
3.334743e+003,3.585339e+002
3.335707e+003,3.610677e+002
3.336671e+003,3.620770e+002
3.337636e+003,3.622943e+002
3.338600e+003,3.618661e+002
3.339564e+003,3.626742e+002
3.340528e+003,3.677293e+002
3.341493e+003,3.680088e+002
3.342457e+003,3.634073e+002
3.343421e+003,3.594763e+002
3.344385e+003,3.579940e+002
3.345350e+003,3.634690e+002
3.346314e+003,3.723056e+002
3.347278e+003,3.740298e+002
3.348242e+003,3.712391e+002
3.349207e+003,3.689616e+002
3.350171e+003,3.682939e+002
3.351135e+003,3.722953e+002
3.352099e+003,3.768047e+002
3.353063e+003,3.800095e+002
3.354028e+003,3.802902e+002
3.354992e+003,3.772054e+002
3.355956e+003,3.752107e+002
3.356920e+003,3.756902e+002
3.357885e+003,3.756894e+002
3.358849e+003,3.742763e+002
3.359813e+003,3.768466e+002
3.360777e+003,3.831982e+002
3.361741e+003,3.861754e+002
3.362706e+003,3.867578e+002
3.363670e+003,3.866914e+002
3.364634e+003,3.858726e+002
3.365598e+003,3.828330e+002
3.366563e+003,3.817040e+002
3.367527e+003,3.855133e+002
3.368491e+003,3.899006e+002
3.369455e+003,3.913223e+002
3.370420e+003,3.918260e+002
3.371384e+003,3.916884e+002
3.372348e+003,3.925594e+002
3.373312e+003,3.944371e+002
3.374277e+003,3.957129e+002
3.375241e+003,3.962585e+002
3.376205e+003,3.958837e+002
3.377169e+003,3.954222e+002
3.378134e+003,3.969053e+002
3.379098e+003,3.988982e+002
3.380062e+003,3.985684e+002
3.381026e+003,3.972805e+002
3.381990e+003,3.966519e+002
3.382955e+003,3.962676e+002
3.383919e+003,3.958175e+002
3.384883e+003,3.957563e+002
3.385847e+003,3.962250e+002
3.386812e+003,3.981680e+002
3.387776e+003,4.013140e+002
3.388740e+003,4.024232e+002
3.389704e+003,4.008885e+002
3.390668e+003,4.005285e+002
3.391633e+003,4.012966e+002
3.392597e+003,4.039287e+002
3.393561e+003,4.063997e+002
3.394525e+003,4.043895e+002
3.395490e+003,4.025070e+002
3.396454e+003,4.040410e+002
3.397418e+003,4.073429e+002
3.398382e+003,4.114299e+002
3.399347e+003,4.132285e+002
3.400311e+003,4.105214e+002
3.401275e+003,4.074283e+002
3.402239e+003,4.040537e+002
3.403204e+003,4.058619e+002
3.404168e+003,4.112904e+002
3.405132e+003,4.134552e+002
3.406096e+003,4.127528e+002
3.407061e+003,4.097834e+002
3.408025e+003,4.075802e+002
3.408989e+003,4.095495e+002
3.409953e+003,4.122643e+002
3.410917e+003,4.114687e+002
3.411882e+003,4.099095e+002
3.412846e+003,4.086938e+002
3.413810e+003,4.092367e+002
3.414774e+003,4.117726e+002
3.415739e+003,4.133863e+002
3.416703e+003,4.139090e+002
3.417667e+003,4.148622e+002
3.418631e+003,4.162026e+002
3.419595e+003,4.167525e+002
3.420560e+003,4.166502e+002
3.421524e+003,4.160294e+002
3.422488e+003,4.154473e+002
3.423452e+003,4.153013e+002
3.424417e+003,4.164908e+002
3.425381e+003,4.203720e+002
3.426345e+003,4.234194e+002
3.427309e+003,4.246791e+002
3.428274e+003,4.245410e+002
3.429238e+003,4.232917e+002
3.430202e+003,4.214328e+002
3.431166e+003,4.192348e+002
3.432131e+003,4.207667e+002
3.433095e+003,4.246179e+002
3.434059e+003,4.241872e+002
3.435023e+003,4.222979e+002
3.435988e+003,4.223750e+002
3.436952e+003,4.238910e+002
3.437916e+003,4.264787e+002
3.438880e+003,4.286985e+002
3.439844e+003,4.297052e+002
3.440809e+003,4.309169e+002
3.441773e+003,4.334938e+002
3.442737e+003,4.343659e+002
3.443701e+003,4.334020e+002
3.444666e+003,4.317896e+002
3.445630e+003,4.300782e+002
3.446594e+003,4.290727e+002
3.447558e+003,4.292988e+002
3.448522e+003,4.313735e+002
3.449487e+003,4.343714e+002
3.450451e+003,4.375010e+002
3.451415e+003,4.408006e+002
3.452379e+003,4.466464e+002
3.453344e+003,4.466943e+002
3.454308e+003,4.361212e+002
3.455272e+003,4.348835e+002
3.456236e+003,4.425455e+002
3.457201e+003,4.469320e+002
3.458165e+003,4.476189e+002
3.459129e+003,4.496682e+002
3.460093e+003,4.515498e+002
3.461058e+003,4.493299e+002
3.462022e+003,4.463647e+002
3.462986e+003,4.480274e+002
3.463950e+003,4.516836e+002
3.464915e+003,4.583024e+002
3.465879e+003,4.602114e+002
3.466843e+003,4.564078e+002
3.467807e+003,4.540515e+002
3.468771e+003,4.547348e+002
3.469736e+003,4.573346e+002
3.470700e+003,4.610986e+002
3.471664e+003,4.637833e+002
3.472628e+003,4.656569e+002
3.473593e+003,4.676006e+002
3.474557e+003,4.691919e+002
3.475521e+003,4.695345e+002
3.476485e+003,4.701543e+002
3.477449e+003,4.716943e+002
3.478414e+003,4.722572e+002
3.479378e+003,4.715131e+002
3.480342e+003,4.725852e+002
3.481306e+003,4.765361e+002
3.482271e+003,4.803349e+002
3.483235e+003,4.836298e+002
3.484199e+003,4.831646e+002
3.485163e+003,4.814653e+002
3.486128e+003,4.827396e+002
3.487092e+003,4.850362e+002
3.488056e+003,4.870022e+002
3.489020e+003,4.877133e+002
3.489985e+003,4.867153e+002
3.490949e+003,4.847311e+002
3.491913e+003,4.815104e+002
3.492877e+003,4.835809e+002
3.493842e+003,4.913672e+002
3.494806e+003,4.932088e+002
3.495770e+003,4.915454e+002
3.496734e+003,4.916821e+002
3.497698e+003,4.942789e+002
3.498663e+003,5.008418e+002
3.499627e+003,5.036545e+002
3.500591e+003,0.000000e+000
