9.974011e+001,3.746411e+002
1.007043e+002,3.779762e+002
1.016686e+002,3.820872e+002
1.026328e+002,3.869152e+002
1.035970e+002,3.896130e+002
1.045613e+002,3.902634e+002
1.055255e+002,3.894095e+002
1.064897e+002,3.879661e+002
1.074540e+002,3.862243e+002
1.084182e+002,3.831446e+002
1.093824e+002,3.768679e+002
1.103467e+002,3.679991e+002
1.113109e+002,3.603727e+002
1.122751e+002,3.596444e+002
1.132394e+002,3.613681e+002
1.142036e+002,3.637305e+002
1.151678e+002,3.654560e+002
1.161321e+002,3.661777e+002
1.170963e+002,3.664767e+002
1.180605e+002,3.659522e+002
1.190248e+002,3.637641e+002
1.199890e+002,3.591594e+002
1.209532e+002,3.518971e+002
1.219175e+002,3.476429e+002
1.228817e+002,3.474063e+002
1.238459e+002,3.494485e+002
1.248102e+002,3.503997e+002
1.257744e+002,3.486158e+002
1.267386e+002,3.470092e+002
1.277029e+002,3.456467e+002
1.286671e+002,3.443655e+002
1.296313e+002,3.427296e+002
1.305956e+002,3.402024e+002
1.315598e+002,3.378425e+002
1.325240e+002,3.364565e+002
1.334883e+002,3.363743e+002
1.344525e+002,3.369274e+002
1.354167e+002,3.359765e+002
1.363810e+002,3.340225e+002
1.373452e+002,3.318467e+002
1.383094e+002,3.301668e+002
1.392737e+002,3.292344e+002
1.402379e+002,3.274061e+002
1.412021e+002,3.239379e+002
1.421664e+002,3.199573e+002
1.431306e+002,3.172483e+002
1.440948e+002,3.174121e+002
1.450591e+002,3.177026e+002
1.460233e+002,3.175618e+002
1.469875e+002,3.170171e+002
1.479518e+002,3.164602e+002
1.489160e+002,3.162286e+002
1.498802e+002,3.156840e+002
1.508445e+002,3.150004e+002
1.518087e+002,3.143733e+002
1.527729e+002,3.140641e+002
1.537372e+002,3.134962e+002
1.547014e+002,3.123361e+002
1.556656e+002,3.109533e+002
1.566299e+002,3.097109e+002
1.575941e+002,3.089904e+002
1.585583e+002,3.069309e+002
1.595226e+002,3.031495e+002
1.604868e+002,2.990974e+002
1.614510e+002,2.959853e+002
1.624153e+002,2.934122e+002
1.633795e+002,2.915518e+002
1.643438e+002,2.914508e+002
1.653080e+002,2.923228e+002
1.662722e+002,2.929397e+002
1.672365e+002,2.920769e+002
1.682007e+002,2.908242e+002
1.691649e+002,2.897122e+002
1.701292e+002,2.889408e+002
1.710934e+002,2.885803e+002
1.720576e+002,2.885181e+002
1.730219e+002,2.886444e+002
1.739861e+002,2.890773e+002
1.749503e+002,2.896586e+002
1.759146e+002,2.900443e+002
1.768788e+002,2.895717e+002
1.778430e+002,2.900147e+002
1.788073e+002,2.896930e+002
1.797715e+002,2.869108e+002
1.807357e+002,2.797656e+002
1.817000e+002,2.767572e+002
1.826642e+002,2.794644e+002
1.836284e+002,2.835057e+002
1.845927e+002,2.856819e+002
1.855569e+002,2.840044e+002
1.865211e+002,2.806664e+002
1.874854e+002,2.776888e+002
1.884496e+002,2.753103e+002
1.894138e+002,2.735242e+002
1.903781e+002,2.720635e+002
1.913423e+002,2.713479e+002
1.923065e+002,2.720376e+002
1.932708e+002,2.738250e+002
1.942350e+002,2.757395e+002
1.951992e+002,2.751862e+002
1.961635e+002,2.711115e+002
1.971277e+002,2.678628e+002
1.980919e+002,2.665393e+002
1.990562e+002,2.671260e+002
2.000204e+002,2.672881e+002
2.009846e+002,2.657053e+002
2.019489e+002,2.643038e+002
2.029131e+002,2.637547e+002
2.038773e+002,2.643357e+002
2.048416e+002,2.657400e+002
2.058058e+002,2.689189e+002
2.067700e+002,2.718867e+002
2.077343e+002,2.727477e+002
2.086985e+002,2.701517e+002
2.096627e+002,2.652775e+002
2.106270e+002,2.631865e+002
2.115912e+002,2.633996e+002
2.125554e+002,2.643125e+002
2.135197e+002,2.640120e+002
2.144839e+002,2.612464e+002
2.154481e+002,2.597780e+002
2.164124e+002,2.609963e+002
2.173766e+002,2.633727e+002
2.183408e+002,2.643061e+002
2.193051e+002,2.616674e+002
2.202693e+002,2.593746e+002
2.212335e+002,2.577986e+002
2.221978e+002,2.569575e+002
2.231620e+002,2.568008e+002
2.241262e+002,2.584375e+002
2.250904e+002,2.607246e+002
2.260547e+002,2.626926e+002
2.270189e+002,2.638879e+002
2.279831e+002,2.640481e+002
2.289474e+002,2.625024e+002
2.299116e+002,2.600121e+002
2.308758e+002,2.585313e+002
2.318401e+002,2.590696e+002
2.328043e+002,2.618757e+002
2.337685e+002,2.635860e+002
2.347328e+002,2.623700e+002
2.356970e+002,2.607606e+002
2.366612e+002,2.603282e+002
2.376255e+002,2.619289e+002
2.385897e+002,2.622971e+002
2.395539e+002,2.590120e+002
2.405182e+002,2.554007e+002
2.414824e+002,2.538938e+002
2.424466e+002,2.561804e+002
2.434109e+002,2.594839e+002
2.443751e+002,2.596157e+002
2.453393e+002,2.578021e+002
2.463036e+002,2.555785e+002
2.472678e+002,2.546207e+002
2.482320e+002,2.554219e+002
2.491963e+002,2.569826e+002
2.501605e+002,2.592364e+002
2.511247e+002,2.617389e+002
2.520890e+002,2.638828e+002
2.530532e+002,2.657455e+002
2.540174e+002,2.668356e+002
2.549817e+002,2.671654e+002
2.559459e+002,2.671564e+002
2.569102e+002,2.673493e+002
2.578744e+002,2.674807e+002
2.588386e+002,2.668116e+002
2.598029e+002,2.652153e+002
2.607671e+002,2.633257e+002
2.617313e+002,2.622026e+002
2.626956e+002,2.638826e+002
2.636598e+002,2.669418e+002
2.646240e+002,2.691830e+002
2.655883e+002,2.699459e+002
2.665525e+002,2.692683e+002
2.675167e+002,2.682350e+002
2.684810e+002,2.669536e+002
2.694452e+002,2.665815e+002
2.704094e+002,2.681351e+002
2.713737e+002,2.717279e+002
2.723379e+002,2.735810e+002
2.733021e+002,2.716831e+002
2.742664e+002,2.692405e+002
2.752306e+002,2.669852e+002
2.761948e+002,2.652842e+002
2.771591e+002,2.648669e+002
2.781233e+002,2.676267e+002
2.790875e+002,2.713131e+002
2.800518e+002,2.744013e+002
2.810160e+002,2.759662e+002
2.819802e+002,2.763772e+002
2.829445e+002,2.771964e+002
2.839087e+002,2.783079e+002
2.848729e+002,2.793828e+002
2.858372e+002,2.802041e+002
2.868014e+002,2.808358e+002
2.877656e+002,2.810650e+002
2.887299e+002,2.799475e+002
2.896941e+002,2.785417e+002
2.906583e+002,2.779875e+002
2.916226e+002,2.793610e+002
2.925868e+002,2.802029e+002
2.935510e+002,2.794107e+002
2.945153e+002,2.782198e+002
2.954795e+002,2.776495e+002
2.964437e+002,2.783134e+002
2.974080e+002,2.793154e+002
2.983722e+002,2.802425e+002
2.993364e+002,2.812307e+002
3.003007e+002,2.822307e+002
3.012649e+002,2.830544e+002
3.022291e+002,2.835460e+002
3.031934e+002,2.844092e+002
3.041576e+002,2.858729e+002
3.051218e+002,2.876110e+002
3.060861e+002,2.889660e+002
3.070503e+002,2.891884e+002
3.080145e+002,2.887599e+002
3.089788e+002,2.873637e+002
3.099430e+002,2.860797e+002
3.109072e+002,2.866235e+002
3.118715e+002,2.917449e+002
3.128357e+002,2.965339e+002
3.137999e+002,2.984821e+002
3.147642e+002,2.978252e+002
3.157284e+002,2.956335e+002
3.166926e+002,2.930738e+002
3.176569e+002,2.912368e+002
3.186211e+002,2.910401e+002
3.195853e+002,2.923510e+002
3.205496e+002,2.943844e+002
3.215138e+002,2.953838e+002
3.224780e+002,2.943911e+002
3.234423e+002,2.942910e+002
3.244065e+002,2.962253e+002
3.253707e+002,2.995802e+002
3.263350e+002,3.016834e+002
3.272992e+002,3.012638e+002
3.282634e+002,3.010838e+002
3.292277e+002,3.013072e+002
3.301919e+002,3.019406e+002
3.311561e+002,3.028594e+002
3.321204e+002,3.040985e+002
3.330846e+002,3.051537e+002
3.340488e+002,3.061479e+002
3.350131e+002,3.068685e+002
3.359773e+002,3.067933e+002
3.369415e+002,3.040362e+002
3.379058e+002,2.997383e+002
3.388700e+002,2.980204e+002
3.398342e+002,3.003686e+002
3.407985e+002,3.059643e+002
3.417627e+002,3.090355e+002
3.427269e+002,3.060668e+002
3.436912e+002,3.036156e+002
3.446554e+002,3.031647e+002
3.456196e+002,3.046977e+002
3.465839e+002,3.066628e+002
3.475481e+002,3.095178e+002
3.485123e+002,3.119690e+002
3.494765e+002,3.129211e+002
3.504408e+002,3.122790e+002
3.514050e+002,3.109702e+002
3.523692e+002,3.106463e+002
3.533335e+002,3.110501e+002
3.542977e+002,3.120601e+002
3.552619e+002,3.136639e+002
3.562262e+002,3.157897e+002
3.571904e+002,3.175591e+002
3.581546e+002,3.186455e+002
3.591189e+002,3.191608e+002
3.600831e+002,3.187305e+002
3.610473e+002,3.173156e+002
3.620116e+002,3.161520e+002
3.629758e+002,3.161442e+002
3.639400e+002,3.162021e+002
3.649043e+002,3.158644e+002
3.658685e+002,3.151532e+002
3.668327e+002,3.147073e+002
3.677970e+002,3.152587e+002
3.687612e+002,3.165093e+002
3.697254e+002,3.187976e+002
3.706897e+002,3.218709e+002
3.716539e+002,3.248524e+002
3.726181e+002,3.250395e+002
3.735824e+002,3.229272e+002
3.745466e+002,3.211516e+002
3.755108e+002,3.207063e+002
3.764751e+002,3.216349e+002
3.774393e+002,3.225225e+002
3.784035e+002,3.231406e+002
3.793678e+002,3.235098e+002
3.803320e+002,3.237721e+002
3.812962e+002,3.240217e+002
3.822605e+002,3.242319e+002
3.832247e+002,3.234088e+002
3.841889e+002,3.231996e+002
3.851532e+002,3.245528e+002
3.861174e+002,3.272062e+002
3.870816e+002,3.299040e+002
3.880459e+002,3.309518e+002
3.890101e+002,3.310062e+002
3.899743e+002,3.306038e+002
3.909386e+002,3.300410e+002
3.919028e+002,3.296504e+002
3.928670e+002,3.302171e+002
3.938313e+002,3.315601e+002
3.947955e+002,3.325829e+002
3.957597e+002,3.333553e+002
3.967240e+002,3.339366e+002
3.976882e+002,3.341308e+002
3.986524e+002,3.335212e+002
3.996167e+002,3.333202e+002
4.005809e+002,3.334769e+002
4.015451e+002,3.337263e+002
4.025094e+002,3.337087e+002
4.034736e+002,3.333211e+002
4.044378e+002,3.335254e+002
4.054021e+002,3.349854e+002
4.063663e+002,3.372018e+002
4.073305e+002,3.390414e+002
4.082948e+002,3.385558e+002
4.092590e+002,3.359383e+002
4.102232e+002,3.344460e+002
4.111875e+002,3.344349e+002
4.121517e+002,3.352824e+002
4.131159e+002,3.356273e+002
4.140802e+002,3.360051e+002
4.150444e+002,3.367466e+002
4.160086e+002,3.374890e+002
4.169729e+002,3.383244e+002
4.179371e+002,3.393935e+002
4.189013e+002,3.402037e+002
4.198656e+002,3.401891e+002
4.208298e+002,3.398844e+002
4.217940e+002,3.393864e+002
4.227583e+002,3.387487e+002
4.237225e+002,3.380274e+002
4.246867e+002,3.380099e+002
4.256510e+002,3.386682e+002
4.266152e+002,3.396507e+002
4.275794e+002,3.408386e+002
4.285437e+002,3.422924e+002
4.295079e+002,3.442488e+002
4.304721e+002,3.459478e+002
4.314364e+002,3.480712e+002
4.324006e+002,3.501932e+002
4.333648e+002,3.515840e+002
4.343291e+002,3.514198e+002
4.352933e+002,3.508778e+002
4.362575e+002,3.500579e+002
4.372218e+002,3.495573e+002
4.381860e+002,3.500464e+002
4.391502e+002,3.519597e+002
4.401145e+002,3.541976e+002
4.410787e+002,3.559167e+002
4.420429e+002,3.573702e+002
4.430072e+002,3.582872e+002
4.439714e+002,3.583365e+002
4.449356e+002,3.572523e+002
4.458999e+002,3.567950e+002
4.468641e+002,3.573607e+002
4.478283e+002,3.577533e+002
4.487926e+002,3.571866e+002
4.497568e+002,3.556542e+002
4.507210e+002,3.559681e+002
4.516853e+002,3.584768e+002
4.526495e+002,3.607152e+002
4.536137e+002,3.618257e+002
4.545780e+002,3.618829e+002
4.555422e+002,3.619993e+002
4.565064e+002,3.641906e+002
4.574707e+002,3.667120e+002
4.584349e+002,3.682942e+002
4.593991e+002,3.683970e+002
4.603634e+002,3.670611e+002
4.613276e+002,3.644202e+002
4.622918e+002,3.610449e+002
4.632561e+002,3.588129e+002
4.642203e+002,3.582355e+002
4.651845e+002,3.590636e+002
4.661488e+002,3.603745e+002
4.671130e+002,3.635728e+002
4.680772e+002,3.646949e+002
4.690415e+002,3.628569e+002
4.700057e+002,3.593522e+002
4.709699e+002,3.563292e+002
4.719342e+002,3.544697e+002
4.728984e+002,3.532047e+002
4.738626e+002,3.524045e+002
4.748269e+002,3.517957e+002
4.757911e+002,3.510644e+002
4.767553e+002,3.499458e+002
4.777196e+002,3.491713e+002
4.786838e+002,3.497074e+002
4.796480e+002,3.510055e+002
4.806123e+002,3.522951e+002
4.815765e+002,3.531296e+002
4.825407e+002,3.542994e+002
4.835050e+002,3.535217e+002
4.844692e+002,3.493453e+002
4.854334e+002,3.450534e+002
4.863977e+002,3.424150e+002
4.873619e+002,3.412219e+002
4.883261e+002,3.405327e+002
4.892904e+002,3.421567e+002
4.902546e+002,3.443867e+002
4.912188e+002,3.458846e+002
4.921831e+002,3.459915e+002
4.931473e+002,3.451652e+002
4.941115e+002,3.441142e+002
4.950758e+002,3.430805e+002
4.960400e+002,3.423841e+002
4.970042e+002,3.422542e+002
4.979685e+002,3.427017e+002
4.989327e+002,3.431396e+002
4.998969e+002,3.425390e+002
5.008612e+002,3.423785e+002
5.018254e+002,3.434095e+002
5.027896e+002,3.450363e+002
5.037539e+002,3.454672e+002
5.047181e+002,3.441070e+002
5.056823e+002,3.431518e+002
5.066466e+002,3.432303e+002
5.076108e+002,3.438520e+002
5.085750e+002,3.439763e+002
5.095393e+002,3.422486e+002
5.105035e+002,3.400948e+002
5.114677e+002,3.398732e+002
5.124320e+002,3.414862e+002
5.133962e+002,3.443050e+002
5.143605e+002,3.475344e+002
5.153247e+002,3.508084e+002
5.162889e+002,3.539572e+002
5.172532e+002,3.577343e+002
5.182174e+002,3.610836e+002
5.191816e+002,3.627014e+002
5.201459e+002,3.618330e+002
5.211101e+002,3.623104e+002
5.220743e+002,3.648558e+002
5.230386e+002,3.677509e+002
5.240028e+002,3.707712e+002
5.249670e+002,3.742470e+002
5.259313e+002,3.788073e+002
5.268955e+002,3.846965e+002
5.278597e+002,3.902600e+002
5.288240e+002,3.947480e+002
5.297882e+002,3.981756e+002
5.307524e+002,4.010102e+002
5.317167e+002,4.040675e+002
5.326809e+002,4.081282e+002
5.336451e+002,4.133540e+002
5.346094e+002,4.193661e+002
5.355736e+002,4.251585e+002
5.365378e+002,4.294174e+002
5.375021e+002,4.312760e+002
5.384663e+002,4.356027e+002
5.394305e+002,4.452000e+002
5.403948e+002,4.554679e+002
5.413590e+002,4.612744e+002
5.423232e+002,4.594604e+002
5.432875e+002,4.565922e+002
5.442517e+002,4.594730e+002
5.452159e+002,4.654634e+002
5.461802e+002,4.718896e+002
5.471444e+002,4.767572e+002
5.481086e+002,4.794959e+002
5.490729e+002,4.798178e+002
5.500371e+002,4.790916e+002
5.510013e+002,4.794590e+002
5.519656e+002,4.822093e+002
5.529298e+002,4.868442e+002
5.538940e+002,4.897399e+002
5.548583e+002,4.878822e+002
5.558225e+002,4.853247e+002
5.567867e+002,4.823607e+002
5.577510e+002,4.795409e+002
5.587152e+002,4.777640e+002
5.596794e+002,4.785552e+002
5.606437e+002,4.797035e+002
5.616079e+002,4.794850e+002
5.625721e+002,4.780687e+002
5.635364e+002,4.756405e+002
5.645006e+002,4.723000e+002
5.654648e+002,4.680941e+002
5.664291e+002,4.648941e+002
5.673933e+002,4.635808e+002
5.683575e+002,4.632550e+002
5.693218e+002,4.624992e+002
5.702860e+002,4.601935e+002
5.712502e+002,4.583764e+002
5.722145e+002,4.597086e+002
5.731787e+002,4.589644e+002
5.741429e+002,4.542355e+002
5.751072e+002,4.464802e+002
5.760714e+002,4.391888e+002
5.770356e+002,4.334906e+002
5.779999e+002,4.297559e+002
5.789641e+002,4.279784e+002
5.799283e+002,4.274609e+002
5.808926e+002,4.274084e+002
5.818568e+002,4.272880e+002
5.828210e+002,4.267836e+002
5.837853e+002,4.257394e+002
5.847495e+002,4.245893e+002
5.857137e+002,4.223283e+002
5.866780e+002,4.173498e+002
5.876422e+002,4.081994e+002
5.886064e+002,4.019347e+002
5.895707e+002,3.991531e+002
5.905349e+002,3.979455e+002
5.914991e+002,3.979977e+002
5.924634e+002,3.988707e+002
5.934276e+002,3.987235e+002
5.943918e+002,3.961049e+002
5.953560e+002,3.927953e+002
5.963203e+002,3.890227e+002
5.972845e+002,3.849081e+002
5.982487e+002,3.806270e+002
5.992130e+002,3.767228e+002
6.001772e+002,3.738394e+002
6.011414e+002,3.711124e+002
6.021057e+002,3.676523e+002
6.030699e+002,3.633121e+002
6.040341e+002,3.583402e+002
6.049984e+002,3.529390e+002
6.059626e+002,3.481386e+002
6.069268e+002,3.450617e+002
6.078911e+002,3.428295e+002
6.088553e+002,3.404120e+002
6.098195e+002,3.372042e+002
6.107838e+002,3.337610e+002
6.117480e+002,3.314137e+002
6.127122e+002,3.294200e+002
6.136765e+002,3.267646e+002
6.146407e+002,3.233307e+002
6.156049e+002,3.198047e+002
6.165692e+002,3.176207e+002
6.175334e+002,3.167950e+002
6.184976e+002,3.152621e+002
6.194619e+002,3.131886e+002
6.204261e+002,3.107770e+002
6.213903e+002,3.079539e+002
6.223546e+002,3.039884e+002
6.233188e+002,3.005283e+002
6.242830e+002,2.975686e+002
6.252473e+002,2.946863e+002
6.262115e+002,2.919139e+002
6.271757e+002,2.893370e+002
6.281400e+002,2.866448e+002
6.291042e+002,2.833867e+002
6.300684e+002,2.801267e+002
6.310327e+002,2.769929e+002
6.319969e+002,2.741076e+002
6.329611e+002,2.716052e+002
6.339254e+002,2.696182e+002
6.348896e+002,2.677593e+002
6.358538e+002,2.656179e+002
6.368181e+002,2.635951e+002
6.377823e+002,2.613227e+002
6.387465e+002,2.580042e+002
6.397108e+002,2.528424e+002
6.406750e+002,2.496468e+002
6.416392e+002,2.490770e+002
6.426035e+002,2.484766e+002
6.435677e+002,2.470405e+002
6.445319e+002,2.447278e+002
6.454962e+002,2.415965e+002
6.464604e+002,2.363383e+002
6.474246e+002,2.314913e+002
6.483889e+002,2.288688e+002
6.493531e+002,2.279679e+002
6.503173e+002,2.273876e+002
6.512816e+002,2.257137e+002
6.522458e+002,2.229957e+002
6.532100e+002,2.189454e+002
6.541743e+002,2.132590e+002
6.551385e+002,2.081068e+002
6.561027e+002,2.052605e+002
6.570670e+002,2.049026e+002
6.580312e+002,2.042431e+002
6.589954e+002,2.027058e+002
6.599597e+002,2.005299e+002
6.609239e+002,1.984707e+002
6.618881e+002,1.965647e+002
6.628524e+002,1.939083e+002
6.638166e+002,1.886192e+002
6.647808e+002,1.836232e+002
6.657451e+002,1.814513e+002
6.667093e+002,1.813789e+002
6.676735e+002,1.819669e+002
6.686378e+002,1.819622e+002
6.696020e+002,1.813921e+002
6.705662e+002,1.805268e+002
6.715305e+002,1.797093e+002
6.724947e+002,1.778028e+002
6.734589e+002,1.738669e+002
6.744232e+002,1.683418e+002
6.753874e+002,1.643016e+002
6.763516e+002,1.632451e+002
6.773159e+002,1.623548e+002
6.782801e+002,1.607646e+002
6.792443e+002,1.585473e+002
6.802086e+002,1.561558e+002
6.811728e+002,1.539577e+002
6.821370e+002,1.516786e+002
6.831013e+002,1.490284e+002
6.840655e+002,1.465928e+002
6.850297e+002,1.452401e+002
6.859940e+002,1.453753e+002
6.869582e+002,1.463729e+002
6.879224e+002,1.450192e+002
6.888867e+002,1.394689e+002
6.898509e+002,1.351693e+002
6.908151e+002,1.343140e+002
6.917794e+002,1.355768e+002
6.927436e+002,1.355998e+002
6.937078e+002,1.327879e+002
6.946721e+002,1.302113e+002
6.956363e+002,1.292758e+002
6.966005e+002,1.290216e+002
6.975648e+002,1.283734e+002
6.985290e+002,1.266561e+002
6.994932e+002,1.239355e+002
7.004575e+002,1.202472e+002
7.014217e+002,1.163856e+002
7.023859e+002,1.135244e+002
7.033502e+002,1.121455e+002
7.043144e+002,1.119024e+002
7.052786e+002,1.117610e+002
7.062429e+002,1.114785e+002
7.072071e+002,1.105850e+002
7.081713e+002,1.092717e+002
7.091356e+002,1.078595e+002
7.100998e+002,1.063238e+002
7.110640e+002,1.044170e+002
7.120283e+002,1.026165e+002
7.129925e+002,1.011310e+002
7.139567e+002,1.000039e+002
7.149210e+002,9.987480e+001
7.158852e+002,1.003426e+002
7.168494e+002,1.000079e+002
7.178137e+002,9.683854e+001
7.187779e+002,9.190495e+001
7.197421e+002,9.044160e+001
7.207064e+002,9.253869e+001
7.216706e+002,9.510252e+001
7.226348e+002,9.543268e+001
7.235991e+002,9.336391e+001
7.245633e+002,9.139972e+001
7.255275e+002,8.779601e+001
7.264918e+002,8.518872e+001
7.274560e+002,8.529849e+001
7.284202e+002,8.753272e+001
7.293845e+002,8.983441e+001
7.303487e+002,9.133729e+001
7.313129e+002,9.168362e+001
7.322772e+002,8.997548e+001
7.332414e+002,8.740100e+001
7.342056e+002,8.604115e+001
7.351699e+002,8.725742e+001
7.361341e+002,9.032039e+001
7.370983e+002,9.106947e+001
7.380626e+002,8.863911e+001
7.390268e+002,8.666710e+001
7.399910e+002,8.663252e+001
7.409553e+002,8.818343e+001
7.419195e+002,8.994741e+001
7.428837e+002,9.189336e+001
7.438480e+002,9.266335e+001
7.448122e+002,9.238289e+001
7.457764e+002,9.179256e+001
7.467407e+002,9.111400e+001
7.477049e+002,9.050344e+001
7.486691e+002,9.060005e+001
7.496334e+002,9.217403e+001
7.505976e+002,9.394756e+001
7.515618e+002,9.518148e+001
7.525261e+002,9.581819e+001
7.534903e+002,9.587881e+001
7.544545e+002,9.532915e+001
7.554188e+002,9.429239e+001
7.563830e+002,9.457979e+001
7.573472e+002,9.586154e+001
7.583115e+002,9.703514e+001
7.592757e+002,9.778897e+001
7.602399e+002,9.856636e+001
7.612042e+002,1.002374e+002
7.621684e+002,1.030259e+002
7.631326e+002,1.056414e+002
7.640969e+002,1.081413e+002
7.650611e+002,1.101764e+002
7.660253e+002,1.113309e+002
7.669896e+002,1.114390e+002
7.679538e+002,1.111919e+002
7.689180e+002,1.109448e+002
7.698823e+002,1.099820e+002
7.708465e+002,1.094119e+002
7.718107e+002,1.103745e+002
7.727750e+002,1.127691e+002
7.737392e+002,1.147845e+002
7.747034e+002,1.166091e+002
7.756677e+002,1.175624e+002
7.766319e+002,1.163229e+002
7.775961e+002,1.146504e+002
7.785604e+002,1.142334e+002
7.795246e+002,1.155215e+002
7.804888e+002,1.171246e+002
7.814531e+002,1.184948e+002
7.824173e+002,1.192277e+002
7.833815e+002,1.185674e+002
7.843458e+002,1.169420e+002
7.853100e+002,1.157273e+002
7.862742e+002,1.164766e+002
7.872385e+002,1.188935e+002
7.882027e+002,1.193574e+002
7.891669e+002,1.175660e+002
7.901312e+002,1.147163e+002
7.910954e+002,1.114731e+002
7.920596e+002,1.083275e+002
7.930239e+002,1.061586e+002
7.939881e+002,1.044787e+002
7.949523e+002,1.041349e+002
7.959166e+002,1.062991e+002
7.968808e+002,1.093040e+002
7.978450e+002,1.111813e+002
7.988093e+002,1.109696e+002
7.997735e+002,1.096485e+002
8.007377e+002,1.084555e+002
8.017020e+002,1.074261e+002
8.026662e+002,1.068142e+002
8.036304e+002,1.066849e+002
8.045947e+002,1.066119e+002
8.055589e+002,1.057406e+002
8.065231e+002,1.034480e+002
8.074874e+002,1.016412e+002
8.084516e+002,1.010216e+002
8.094158e+002,1.001647e+002
8.103801e+002,9.839435e+001
8.113443e+002,9.604432e+001
8.123085e+002,9.407968e+001
8.132728e+002,9.220862e+001
8.142370e+002,9.048223e+001
8.152012e+002,8.884222e+001
8.161655e+002,8.708571e+001
8.171297e+002,8.544653e+001
8.180939e+002,8.443137e+001
8.190582e+002,8.445787e+001
8.200224e+002,8.509113e+001
8.209866e+002,8.614420e+001
8.219509e+002,8.579245e+001
8.229151e+002,8.178592e+001
8.238793e+002,7.611828e+001
8.248436e+002,7.395510e+001
8.258078e+002,7.793867e+001
8.267720e+002,7.973073e+001
8.277363e+002,7.658134e+001
8.287005e+002,7.196125e+001
8.296647e+002,6.802917e+001
8.306290e+002,6.546753e+001
8.315932e+002,6.392019e+001
8.325574e+002,6.330236e+001
8.335217e+002,6.296587e+001
8.344859e+002,6.141429e+001
8.354501e+002,5.868604e+001
8.364144e+002,5.603617e+001
8.373786e+002,5.464243e+001
8.383428e+002,5.464096e+001
8.393071e+002,5.510802e+001
8.402713e+002,5.745864e+001
8.412355e+002,5.845387e+001
8.421998e+002,5.648561e+001
8.431640e+002,5.319290e+001
8.441282e+002,5.092164e+001
8.450925e+002,5.031518e+001
8.460567e+002,5.061663e+001
8.470209e+002,5.228853e+001
8.479852e+002,5.380052e+001
8.489494e+002,5.378660e+001
8.499136e+002,5.227616e+001
8.508779e+002,5.035943e+001
8.518421e+002,4.934439e+001
8.528063e+002,4.918990e+001
8.537706e+002,4.910744e+001
8.547348e+002,4.892698e+001
8.556990e+002,4.934791e+001
8.566633e+002,5.171490e+001
8.576275e+002,5.537634e+001
8.585917e+002,5.568764e+001
8.595560e+002,4.874095e+001
8.605202e+002,4.357407e+001
8.614844e+002,4.350364e+001
8.624487e+002,4.575109e+001
8.634129e+002,4.713016e+001
8.643771e+002,4.622035e+001
8.653414e+002,4.407686e+001
8.663056e+002,4.201810e+001
8.672698e+002,4.115577e+001
8.682341e+002,4.315545e+001
8.691983e+002,4.789690e+001
8.701625e+002,5.241645e+001
8.711268e+002,5.311882e+001
8.720910e+002,4.911685e+001
8.730552e+002,4.561026e+001
8.740195e+002,4.376756e+001
8.749837e+002,4.326363e+001
8.759479e+002,4.400306e+001
8.769122e+002,4.528345e+001
8.778764e+002,4.626528e+001
8.788406e+002,4.664037e+001
8.798049e+002,4.601317e+001
8.807691e+002,4.380784e+001
8.817333e+002,4.170990e+001
8.826976e+002,4.148697e+001
8.836618e+002,4.341127e+001
8.846260e+002,4.632228e+001
8.855903e+002,4.842398e+001
8.865545e+002,4.952961e+001
8.875187e+002,4.911358e+001
8.884830e+002,4.586791e+001
8.894472e+002,4.309998e+001
8.904114e+002,4.327201e+001
8.913757e+002,4.588589e+001
8.923399e+002,4.750607e+001
8.933041e+002,4.611149e+001
8.942684e+002,4.453046e+001
8.952326e+002,4.368316e+001
8.961968e+002,4.367675e+001
8.971611e+002,4.503529e+001
8.981253e+002,4.782921e+001
8.990895e+002,5.102402e+001
9.000538e+002,5.278702e+001
9.010180e+002,5.300194e+001
9.019822e+002,5.239638e+001
9.029465e+002,5.074915e+001
9.039107e+002,4.963397e+001
9.048749e+002,5.090273e+001
9.058392e+002,5.467570e+001
9.068034e+002,5.715433e+001
9.077676e+002,5.756339e+001
9.087319e+002,5.753227e+001
9.096961e+002,5.667683e+001
9.106603e+002,5.614764e+001
9.116246e+002,5.734711e+001
9.125888e+002,6.065877e+001
9.135530e+002,6.435356e+001
9.145173e+002,6.623740e+001
9.154815e+002,6.702237e+001
9.164457e+002,6.814220e+001
9.174100e+002,7.009132e+001
9.183742e+002,7.221465e+001
9.193384e+002,7.345599e+001
9.203027e+002,7.361347e+001
9.212669e+002,7.434934e+001
9.222311e+002,7.373330e+001
9.231954e+002,7.428866e+001
9.241596e+002,7.864976e+001
9.251238e+002,8.490382e+001
9.260881e+002,8.921600e+001
9.270523e+002,9.005424e+001
9.280165e+002,9.016821e+001
9.289808e+002,9.123178e+001
9.299450e+002,9.305074e+001
9.309092e+002,9.553963e+001
9.318735e+002,9.846646e+001
9.328377e+002,1.016192e+002
9.338019e+002,1.049194e+002
9.347662e+002,1.083067e+002
9.357304e+002,1.094615e+002
9.366946e+002,1.080503e+002
9.376589e+002,1.072785e+002
9.386231e+002,1.081847e+002
9.395873e+002,1.097930e+002
9.405516e+002,1.102097e+002
9.415158e+002,1.085561e+002
9.424800e+002,1.086382e+002
9.434443e+002,1.139912e+002
9.444085e+002,1.198368e+002
9.453727e+002,1.225888e+002
9.463370e+002,1.222387e+002
9.473012e+002,1.210762e+002
9.482654e+002,1.210544e+002
9.492297e+002,1.217550e+002
9.501939e+002,1.231910e+002
9.511581e+002,1.260684e+002
9.521224e+002,1.279220e+002
9.530866e+002,1.265854e+002
9.540508e+002,1.233803e+002
9.550151e+002,1.221275e+002
9.559793e+002,1.237562e+002
9.569435e+002,1.238618e+002
9.579078e+002,1.212621e+002
9.588720e+002,1.194127e+002
9.598362e+002,1.204276e+002
9.608005e+002,1.235589e+002
9.617647e+002,1.263030e+002
9.627289e+002,1.267641e+002
9.636932e+002,1.262862e+002
9.646574e+002,1.282896e+002
9.656216e+002,1.315959e+002
9.665859e+002,1.329471e+002
9.675501e+002,1.310198e+002
9.685143e+002,1.279443e+002
9.694786e+002,1.280489e+002
9.704428e+002,1.334400e+002
9.714070e+002,1.366974e+002
9.723713e+002,1.341215e+002
9.733355e+002,1.319581e+002
9.742997e+002,1.342291e+002
9.752640e+002,1.399463e+002
9.762282e+002,1.453795e+002
9.771924e+002,1.482256e+002
9.781567e+002,1.500317e+002
9.791209e+002,1.538082e+002
9.800851e+002,1.580680e+002
9.810494e+002,1.599996e+002
9.820136e+002,1.592154e+002
9.829778e+002,1.584752e+002
9.839421e+002,1.617128e+002
9.849063e+002,1.696270e+002
9.858705e+002,1.730815e+002
9.868348e+002,1.697937e+002
9.877990e+002,1.677496e+002
9.887632e+002,1.696870e+002
9.897275e+002,1.737659e+002
9.906917e+002,1.768854e+002
9.916559e+002,1.777894e+002
9.926202e+002,1.766004e+002
9.935844e+002,1.726762e+002
9.945486e+002,1.688486e+002
9.955129e+002,1.676748e+002
9.964771e+002,1.691613e+002
9.974413e+002,1.714247e+002
9.984056e+002,1.724656e+002
9.993698e+002,1.721573e+002
1.000334e+003,1.723797e+002
1.001298e+003,1.739043e+002
1.002263e+003,1.750999e+002
1.003227e+003,1.753019e+002
1.004191e+003,1.752469e+002
1.005155e+003,1.757833e+002
1.006119e+003,1.769592e+002
1.007084e+003,1.781323e+002
1.008048e+003,1.794949e+002
1.009012e+003,1.811392e+002
1.009976e+003,1.823781e+002
1.010941e+003,1.833084e+002
1.011905e+003,1.846684e+002
1.012869e+003,1.868931e+002
1.013833e+003,1.893288e+002
1.014798e+003,1.904751e+002
1.015762e+003,1.906129e+002
1.016726e+003,1.914837e+002
1.017690e+003,1.932535e+002
1.018654e+003,1.953495e+002
1.019619e+003,1.966814e+002
1.020583e+003,1.973796e+002
1.021547e+003,1.998539e+002
1.022511e+003,2.059130e+002
1.023476e+003,2.113271e+002
1.024440e+003,2.144707e+002
1.025404e+003,2.167530e+002
1.026368e+003,2.194466e+002
1.027333e+003,2.228556e+002
1.028297e+003,2.264479e+002
1.029261e+003,2.294534e+002
1.030225e+003,2.315493e+002
1.031190e+003,2.333325e+002
1.032154e+003,2.356025e+002
1.033118e+003,2.383612e+002
1.034082e+003,2.412463e+002
1.035047e+003,2.441288e+002
1.036011e+003,2.470380e+002
1.036975e+003,2.497526e+002
1.037939e+003,2.524900e+002
1.038903e+003,2.553430e+002
1.039868e+003,2.596212e+002
1.040832e+003,2.668532e+002
1.041796e+003,2.754940e+002
1.042760e+003,2.822266e+002
1.043725e+003,2.850062e+002
1.044689e+003,2.856464e+002
1.045653e+003,2.889895e+002
1.046617e+003,2.948805e+002
1.047582e+003,2.996074e+002
1.048546e+003,3.031329e+002
1.049510e+003,3.064354e+002
1.050474e+003,3.097394e+002
1.051438e+003,3.126696e+002
1.052403e+003,3.159844e+002
1.053367e+003,3.197848e+002
1.054331e+003,3.236411e+002
1.055295e+003,3.273583e+002
1.056260e+003,3.316095e+002
1.057224e+003,3.378213e+002
1.058188e+003,3.458563e+002
1.059152e+003,3.531940e+002
1.060117e+003,3.566725e+002
1.061081e+003,3.574354e+002
1.062045e+003,3.615081e+002
1.063009e+003,3.684808e+002
1.063974e+003,3.744090e+002
1.064938e+003,3.775828e+002
1.065902e+003,3.797414e+002
1.066866e+003,3.838433e+002
1.067830e+003,3.899165e+002
1.068795e+003,3.954225e+002
1.069759e+003,3.999266e+002
1.070723e+003,4.044053e+002
1.071687e+003,4.099091e+002
1.072652e+003,4.161328e+002
1.073616e+003,4.217298e+002
1.074580e+003,4.256929e+002
1.075544e+003,4.287533e+002
1.076509e+003,4.328661e+002
1.077473e+003,4.381546e+002
1.078437e+003,4.436445e+002
1.079401e+003,4.497276e+002
1.080365e+003,4.550576e+002
1.081330e+003,4.577422e+002
1.082294e+003,4.581320e+002
1.083258e+003,4.597351e+002
1.084222e+003,4.638423e+002
1.085187e+003,4.673819e+002
1.086151e+003,4.687979e+002
1.087115e+003,4.703891e+002
1.088079e+003,4.746820e+002
1.089043e+003,4.807060e+002
1.090008e+003,4.847386e+002
1.090972e+003,4.839501e+002
1.091936e+003,4.804872e+002
1.092900e+003,4.804341e+002
1.093865e+003,4.831279e+002
1.094829e+003,4.836515e+002
1.095793e+003,4.801584e+002
1.096757e+003,4.761837e+002
1.097722e+003,4.758541e+002
1.098686e+003,4.787577e+002
1.099650e+003,4.792176e+002
1.100614e+003,4.762214e+002
1.101578e+003,4.727700e+002
1.102543e+003,4.689080e+002
1.103507e+003,4.650654e+002
1.104471e+003,4.614592e+002
1.105435e+003,4.576775e+002
1.106400e+003,4.530804e+002
1.107364e+003,4.476658e+002
1.108328e+003,4.421145e+002
1.109292e+003,4.364966e+002
1.110257e+003,4.309307e+002
1.111221e+003,4.270622e+002
1.112185e+003,4.259536e+002
1.113149e+003,4.249381e+002
1.114114e+003,4.206358e+002
1.115078e+003,4.131098e+002
1.116042e+003,4.055088e+002
1.117006e+003,3.984062e+002
1.117970e+003,3.918687e+002
1.118935e+003,3.855922e+002
1.119899e+003,3.793366e+002
1.120863e+003,3.735145e+002
1.121827e+003,3.683012e+002
1.122792e+003,3.628628e+002
1.123756e+003,3.555928e+002
1.124720e+003,3.463220e+002
1.125684e+003,3.390242e+002
1.126649e+003,3.349496e+002
1.127613e+003,3.309644e+002
1.128577e+003,3.254270e+002
1.129541e+003,3.191846e+002
1.130505e+003,3.136635e+002
1.131470e+003,3.088562e+002
1.132434e+003,3.036887e+002
1.133398e+003,2.982929e+002
1.134362e+003,2.928748e+002
1.135327e+003,2.869053e+002
1.136291e+003,2.807443e+002
1.137255e+003,2.750157e+002
1.138219e+003,2.700651e+002
1.139184e+003,2.659484e+002
1.140148e+003,2.627024e+002
1.141112e+003,2.598045e+002
1.142076e+003,2.545136e+002
1.143041e+003,2.467287e+002
1.144005e+003,2.395555e+002
1.144969e+003,2.341629e+002
1.145933e+003,2.298348e+002
1.146897e+003,2.253799e+002
1.147862e+003,2.203785e+002
1.148826e+003,2.155665e+002
1.149790e+003,2.113596e+002
1.150754e+003,2.080534e+002
1.151719e+003,2.067360e+002
1.152683e+003,2.061090e+002
1.153647e+003,2.039110e+002
1.154611e+003,1.994890e+002
1.155576e+003,1.944337e+002
1.156540e+003,1.908660e+002
1.157504e+003,1.883353e+002
1.158468e+003,1.848067e+002
1.159432e+003,1.807406e+002
1.160397e+003,1.764041e+002
1.161361e+003,1.720817e+002
1.162325e+003,1.679567e+002
1.163289e+003,1.636151e+002
1.164254e+003,1.588042e+002
1.165218e+003,1.547415e+002
1.166182e+003,1.527184e+002
1.167146e+003,1.513921e+002
1.168111e+003,1.495648e+002
1.169075e+003,1.471880e+002
1.170039e+003,1.442809e+002
1.171003e+003,1.409190e+002
1.171968e+003,1.373492e+002
1.172932e+003,1.339511e+002
1.173896e+003,1.308758e+002
1.174860e+003,1.283063e+002
1.175824e+003,1.266027e+002
1.176789e+003,1.241559e+002
1.177753e+003,1.205841e+002
1.178717e+003,1.166616e+002
1.179681e+003,1.127684e+002
1.180646e+003,1.090252e+002
1.181610e+003,1.058615e+002
1.182574e+003,1.038327e+002
1.183538e+003,1.017569e+002
1.184503e+003,9.732483e+001
1.185467e+003,9.206688e+001
1.186431e+003,8.880095e+001
1.187395e+003,8.798016e+001
1.188359e+003,8.806326e+001
1.189324e+003,8.803451e+001
1.190288e+003,8.811752e+001
1.191252e+003,8.717246e+001
1.192216e+003,8.415437e+001
1.193181e+003,8.130102e+001
1.194145e+003,7.910027e+001
1.195109e+003,7.627271e+001
1.196073e+003,7.158811e+001
1.197038e+003,6.619363e+001
1.198002e+003,6.239925e+001
1.198966e+003,6.124082e+001
1.199930e+003,6.157447e+001
1.200895e+003,6.235027e+001
1.201859e+003,6.327521e+001
1.202823e+003,6.324342e+001
1.203787e+003,6.206511e+001
1.204751e+003,6.014456e+001
1.205716e+003,5.766037e+001
1.206680e+003,5.475090e+001
1.207644e+003,5.152492e+001
1.208608e+003,4.764105e+001
1.209573e+003,4.429314e+001
1.210537e+003,4.238020e+001
1.211501e+003,4.123869e+001
1.212465e+003,4.095321e+001
1.213430e+003,4.113747e+001
1.214394e+003,4.096983e+001
1.215358e+003,3.986500e+001
1.216322e+003,3.792181e+001
1.217286e+003,3.574664e+001
1.218251e+003,3.365217e+001
1.219215e+003,3.202970e+001
1.220179e+003,3.123446e+001
1.221143e+003,3.072243e+001
1.222108e+003,3.011014e+001
1.223072e+003,2.985651e+001
1.224036e+003,3.039043e+001
1.225000e+003,3.135063e+001
1.225965e+003,3.186591e+001
1.226929e+003,3.184671e+001
1.227893e+003,3.053328e+001
1.228857e+003,2.799031e+001
1.229822e+003,2.557614e+001
1.230786e+003,2.370153e+001
1.231750e+003,2.230381e+001
1.232714e+003,2.168943e+001
1.233678e+003,2.225530e+001
1.234643e+003,2.341951e+001
1.235607e+003,2.317365e+001
1.236571e+003,2.121118e+001
1.237535e+003,2.001173e+001
1.238500e+003,1.899003e+001
1.239464e+003,1.865854e+001
1.240428e+003,1.972073e+001
1.241392e+003,2.110233e+001
1.242357e+003,2.129951e+001
1.243321e+003,2.023644e+001
1.244285e+003,1.923919e+001
1.245249e+003,1.898553e+001
1.246214e+003,1.951504e+001
1.247178e+003,2.105445e+001
1.248142e+003,2.283393e+001
1.249106e+003,2.271090e+001
1.250070e+003,1.975951e+001
1.251035e+003,1.601499e+001
1.251999e+003,1.413901e+001
1.252963e+003,1.413988e+001
1.253927e+003,1.467799e+001
1.254892e+003,1.710681e+001
1.255856e+003,1.822442e+001
1.256820e+003,1.593903e+001
1.257784e+003,1.313333e+001
1.258749e+003,1.209315e+001
1.259713e+003,1.264595e+001
1.260677e+003,1.324740e+001
1.261641e+003,1.297075e+001
1.262605e+003,1.239420e+001
1.263570e+003,1.261172e+001
1.264534e+003,1.377079e+001
1.265498e+003,1.509681e+001
1.266462e+003,1.697161e+001
1.267427e+003,1.842430e+001
1.268391e+003,1.894360e+001
1.269355e+003,1.828054e+001
1.270319e+003,1.610230e+001
1.271284e+003,1.259168e+001
1.272248e+003,9.556841e+000
1.273212e+003,7.831404e+000
1.274176e+003,7.538479e+000
1.275141e+003,7.784628e+000
1.276105e+003,8.076328e+000
1.277069e+003,8.875000e+000
1.278033e+003,1.031834e+001
1.278997e+003,1.150144e+001
1.279962e+003,1.154564e+001
1.280926e+003,1.107570e+001
1.281890e+003,1.172033e+001
1.282854e+003,1.313171e+001
1.283819e+003,1.319477e+001
1.284783e+003,1.191306e+001
1.285747e+003,1.038240e+001
1.286711e+003,9.001778e+000
1.287676e+003,8.315020e+000
1.288640e+003,8.877790e+000
1.289604e+003,1.053372e+001
1.290568e+003,1.225875e+001
1.291532e+003,1.344949e+001
1.292497e+003,1.392529e+001
1.293461e+003,1.354398e+001
1.294425e+003,1.259964e+001
1.295389e+003,1.113103e+001
1.296354e+003,8.596750e+000
1.297318e+003,6.319265e+000
1.298282e+003,6.137009e+000
1.299246e+003,7.624325e+000
1.300211e+003,8.034933e+000
1.301175e+003,7.104858e+000
1.302139e+003,6.466488e+000
1.303103e+003,6.010870e+000
1.304068e+003,5.532381e+000
1.305032e+003,5.168468e+000
1.305996e+003,4.962593e+000
1.306960e+003,4.917803e+000
1.307924e+003,5.189007e+000
1.308889e+003,6.056295e+000
1.309853e+003,7.535601e+000
1.310817e+003,8.902676e+000
1.311781e+003,9.175039e+000
1.312746e+003,9.314423e+000
1.313710e+003,9.754663e+000
1.314674e+003,1.020829e+001
1.315638e+003,1.068231e+001
1.316603e+003,1.094493e+001
1.317567e+003,1.063144e+001
1.318531e+003,9.775312e+000
1.319495e+003,9.000555e+000
1.320459e+003,8.793261e+000
1.321424e+003,8.434671e+000
1.322388e+003,8.117298e+000
1.323352e+003,9.606337e+000
1.324316e+003,1.243774e+001
1.325281e+003,1.324309e+001
1.326245e+003,1.000817e+001
1.327209e+003,5.889914e+000
1.328173e+003,5.907896e+000
1.329138e+003,1.001049e+001
1.330102e+003,1.160376e+001
1.331066e+003,9.136072e+000
1.332030e+003,7.232182e+000
1.332995e+003,6.521971e+000
1.333959e+003,6.394659e+000
1.334923e+003,6.592010e+000
1.335887e+003,7.024910e+000
1.336851e+003,8.004702e+000
1.337816e+003,9.744762e+000
1.338780e+003,1.173807e+001
1.339744e+003,1.291139e+001
1.340708e+003,1.292377e+001
1.341673e+003,1.242836e+001
1.342637e+003,1.138999e+001
1.343601e+003,1.026418e+001
1.344565e+003,9.116219e+000
1.345530e+003,8.574478e+000
1.346494e+003,9.443336e+000
1.347458e+003,1.103310e+001
1.348422e+003,1.138569e+001
1.349386e+003,9.650713e+000
1.350351e+003,7.569561e+000
1.351315e+003,6.542742e+000
1.352279e+003,6.791698e+000
1.353243e+003,8.990620e+000
1.354208e+003,1.249064e+001
1.355172e+003,1.399593e+001
1.356136e+003,1.168129e+001
1.357100e+003,8.481403e+000
1.358065e+003,8.771832e+000
1.359029e+003,1.210677e+001
1.359993e+003,1.236659e+001
1.360957e+003,7.994404e+000
1.361922e+003,4.649637e+000
1.362886e+003,3.707293e+000
1.363850e+003,4.060434e+000
1.364814e+003,6.133501e+000
1.365778e+003,8.303322e+000
1.366743e+003,8.094437e+000
1.367707e+003,5.304817e+000
1.368671e+003,2.645767e+000
1.369635e+003,2.968237e+000
1.370600e+003,5.787489e+000
1.371564e+003,7.672308e+000
1.372528e+003,7.464306e+000
1.373492e+003,8.012974e+000
1.374457e+003,1.011024e+001
1.375421e+003,1.151673e+001
1.376385e+003,1.121095e+001
1.377349e+003,1.007803e+001
1.378313e+003,8.876165e+000
1.379278e+003,7.777035e+000
1.380242e+003,7.457277e+000
1.381206e+003,8.785242e+000
1.382170e+003,1.066211e+001
1.383135e+003,1.075567e+001
1.384099e+003,9.816648e+000
1.385063e+003,9.997211e+000
1.386027e+003,1.119964e+001
1.386992e+003,1.192113e+001
1.387956e+003,1.159795e+001
1.388920e+003,1.101533e+001
1.389884e+003,1.136913e+001
1.390849e+003,1.277311e+001
1.391813e+003,1.314598e+001
1.392777e+003,1.040119e+001
1.393741e+003,7.557171e+000
1.394705e+003,7.155001e+000
1.395670e+003,8.217201e+000
1.396634e+003,9.574034e+000
1.397598e+003,1.052567e+001
1.398562e+003,1.086904e+001
1.399527e+003,1.080661e+001
1.400491e+003,1.048424e+001
1.401455e+003,9.568995e+000
1.402419e+003,7.943008e+000
1.403384e+003,7.658163e+000
1.404348e+003,9.097696e+000
1.405312e+003,9.918045e+000
1.406276e+003,1.134064e+001
1.407240e+003,1.305848e+001
1.408205e+003,1.392404e+001
1.409169e+003,1.369544e+001
1.410133e+003,1.270080e+001
1.411097e+003,1.113605e+001
1.412062e+003,9.005024e+000
1.413026e+003,6.551142e+000
1.413990e+003,4.767439e+000
1.414954e+003,5.082264e+000
1.415919e+003,7.264778e+000
1.416883e+003,9.306622e+000
1.417847e+003,1.114212e+001
1.418811e+003,1.211564e+001
1.419776e+003,1.173608e+001
1.420740e+003,1.070267e+001
1.421704e+003,9.952534e+000
1.422668e+003,9.667931e+000
1.423632e+003,9.614300e+000
1.424597e+003,9.599319e+000
1.425561e+003,9.643744e+000
1.426525e+003,9.313242e+000
1.427489e+003,9.427824e+000
1.428454e+003,1.184107e+001
1.429418e+003,1.632812e+001
1.430382e+003,1.953570e+001
1.431346e+003,1.921724e+001
1.432311e+003,1.682262e+001
1.433275e+003,1.501060e+001
1.434239e+003,1.440110e+001
1.435203e+003,1.416626e+001
1.436167e+003,1.335922e+001
1.437132e+003,1.313918e+001
1.438096e+003,1.447457e+001
1.439060e+003,1.563768e+001
1.440024e+003,1.622920e+001
1.440989e+003,1.656751e+001
1.441953e+003,1.662470e+001
1.442917e+003,1.616464e+001
1.443881e+003,1.515838e+001
1.444846e+003,1.386449e+001
1.445810e+003,1.286461e+001
1.446774e+003,1.323023e+001
1.447738e+003,1.535319e+001
1.448703e+003,1.611630e+001
1.449667e+003,1.441879e+001
1.450631e+003,1.322429e+001
1.451595e+003,1.411660e+001
1.452559e+003,1.566193e+001
1.453524e+003,1.611561e+001
1.454488e+003,1.568216e+001
1.455452e+003,1.590161e+001
1.456416e+003,1.737078e+001
1.457381e+003,1.870739e+001
1.458345e+003,1.824549e+001
1.459309e+003,1.609922e+001
1.460273e+003,1.363455e+001
1.461238e+003,1.081467e+001
1.462202e+003,1.047496e+001
1.463166e+003,1.474282e+001
1.464130e+003,1.933442e+001
1.465094e+003,2.152931e+001
1.466059e+003,2.145987e+001
1.467023e+003,1.963415e+001
1.467987e+003,1.673778e+001
1.468951e+003,1.487102e+001
1.469916e+003,1.547956e+001
1.470880e+003,1.750358e+001
1.471844e+003,1.874123e+001
1.472808e+003,1.880337e+001
1.473773e+003,1.902714e+001
1.474737e+003,2.000062e+001
1.475701e+003,2.046881e+001
1.476665e+003,1.977435e+001
1.477630e+003,1.872035e+001
1.478594e+003,1.748827e+001
1.479558e+003,1.595115e+001
1.480522e+003,1.553123e+001
1.481486e+003,1.699590e+001
1.482451e+003,1.857693e+001
1.483415e+003,1.965779e+001
1.484379e+003,2.014601e+001
1.485343e+003,1.995224e+001
1.486308e+003,1.932269e+001
1.487272e+003,1.816014e+001
1.488236e+003,1.653984e+001
1.489200e+003,1.567847e+001
1.490165e+003,1.658871e+001
1.491129e+003,1.828908e+001
1.492093e+003,1.875649e+001
1.493057e+003,1.804849e+001
1.494021e+003,1.841700e+001
1.494986e+003,2.056810e+001
1.495950e+003,2.318450e+001
1.496914e+003,2.633673e+001
1.497878e+003,2.862742e+001
1.498843e+003,2.846474e+001
1.499807e+003,2.724428e+001
1.500771e+003,2.741630e+001
1.501735e+003,2.954914e+001
1.502700e+003,3.220898e+001
1.503664e+003,3.407293e+001
1.504628e+003,3.495008e+001
1.505592e+003,3.453782e+001
1.506557e+003,3.254922e+001
1.507521e+003,3.206069e+001
1.508485e+003,3.395090e+001
1.509449e+003,3.553150e+001
1.510413e+003,3.637798e+001
1.511378e+003,3.643609e+001
1.512342e+003,3.581696e+001
1.513306e+003,3.474192e+001
1.514270e+003,3.318893e+001
1.515235e+003,3.117690e+001
1.516199e+003,2.915390e+001
1.517163e+003,2.767188e+001
1.518127e+003,2.679320e+001
1.519092e+003,2.629576e+001
1.520056e+003,2.610987e+001
1.521020e+003,2.557913e+001
1.521984e+003,2.396016e+001
1.522948e+003,2.299422e+001
1.523913e+003,2.437851e+001
1.524877e+003,2.619281e+001
1.525841e+003,2.617503e+001
1.526805e+003,2.478947e+001
1.527770e+003,2.347882e+001
1.528734e+003,2.260702e+001
1.529698e+003,2.251746e+001
1.530662e+003,2.412598e+001
1.531627e+003,2.672445e+001
1.532591e+003,2.798461e+001
1.533555e+003,2.786600e+001
1.534519e+003,2.625235e+001
1.535484e+003,2.157951e+001
1.536448e+003,1.802534e+001
1.537412e+003,1.743567e+001
1.538376e+003,1.792730e+001
1.539340e+003,1.830610e+001
1.540305e+003,1.840848e+001
1.541269e+003,1.717531e+001
1.542233e+003,1.406154e+001
1.543197e+003,1.175424e+001
1.544162e+003,1.285901e+001
1.545126e+003,1.543498e+001
1.546090e+003,1.591856e+001
1.547054e+003,1.551599e+001
1.548019e+003,1.649386e+001
1.548983e+003,1.846582e+001
1.549947e+003,1.966181e+001
1.550911e+003,1.933321e+001
1.551875e+003,1.827555e+001
1.552840e+003,1.768289e+001
1.553804e+003,1.778127e+001
1.554768e+003,1.762235e+001
1.555732e+003,1.649823e+001
1.556697e+003,1.557603e+001
1.557661e+003,1.611485e+001
1.558625e+003,1.696697e+001
1.559589e+003,1.604934e+001
1.560554e+003,1.420679e+001
1.561518e+003,1.364112e+001
1.562482e+003,1.465663e+001
1.563446e+003,1.521721e+001
1.564411e+003,1.375631e+001
1.565375e+003,1.225088e+001
1.566339e+003,1.341776e+001
1.567303e+003,1.629443e+001
1.568267e+003,1.738420e+001
1.569232e+003,1.601554e+001
1.570196e+003,1.456963e+001
1.571160e+003,1.391560e+001
1.572124e+003,1.380115e+001
1.573089e+003,1.515038e+001
1.574053e+003,1.701099e+001
1.575017e+003,1.691934e+001
1.575981e+003,1.466219e+001
1.576946e+003,1.260017e+001
1.577910e+003,1.148775e+001
1.578874e+003,1.081474e+001
1.579838e+003,1.051682e+001
1.580802e+003,1.125296e+001
1.581767e+003,1.388731e+001
1.582731e+003,1.814930e+001
1.583695e+003,2.037273e+001
1.584659e+003,1.869822e+001
1.585624e+003,1.614440e+001
1.586588e+003,1.483596e+001
1.587552e+003,1.510736e+001
1.588516e+003,1.809741e+001
1.589481e+003,2.254804e+001
1.590445e+003,2.378971e+001
1.591409e+003,1.960823e+001
1.592373e+003,1.487104e+001
1.593338e+003,1.497676e+001
1.594302e+003,1.809495e+001
1.595266e+003,1.899227e+001
1.596230e+003,1.772475e+001
1.597194e+003,1.760696e+001
1.598159e+003,1.951275e+001
1.599123e+003,2.105912e+001
1.600087e+003,2.054990e+001
1.601051e+003,1.982524e+001
1.602016e+003,2.090546e+001
1.602980e+003,2.255504e+001
1.603944e+003,2.220030e+001
1.604908e+003,1.971496e+001
1.605873e+003,1.763222e+001
1.606837e+003,1.758368e+001
1.607801e+003,1.880450e+001
1.608765e+003,1.983679e+001
1.609729e+003,2.027096e+001
1.610694e+003,2.059821e+001
1.611658e+003,2.133856e+001
1.612622e+003,2.135749e+001
1.613586e+003,1.974479e+001
1.614551e+003,1.883754e+001
1.615515e+003,2.078102e+001
1.616479e+003,2.303994e+001
1.617443e+003,2.193870e+001
1.618408e+003,1.803579e+001
1.619372e+003,1.591506e+001
1.620336e+003,1.806558e+001
1.621300e+003,2.112432e+001
1.622265e+003,2.086496e+001
1.623229e+003,1.846889e+001
1.624193e+003,1.805191e+001
1.625157e+003,1.964947e+001
1.626121e+003,2.095487e+001
1.627086e+003,2.170383e+001
1.628050e+003,2.192149e+001
1.629014e+003,2.078833e+001
1.629978e+003,1.935197e+001
1.630943e+003,1.862382e+001
1.631907e+003,1.865361e+001
1.632871e+003,2.000404e+001
1.633835e+003,2.295750e+001
1.634800e+003,2.467716e+001
1.635764e+003,2.247313e+001
1.636728e+003,1.912989e+001
1.637692e+003,1.840392e+001
1.638656e+003,1.953764e+001
1.639621e+003,2.061810e+001
1.640585e+003,2.149648e+001
1.641549e+003,2.196234e+001
1.642513e+003,2.245299e+001
1.643478e+003,2.334619e+001
1.644442e+003,2.437886e+001
1.645406e+003,2.537829e+001
1.646370e+003,2.627495e+001
1.647335e+003,2.693512e+001
1.648299e+003,2.750808e+001
1.649263e+003,2.828094e+001
1.650227e+003,2.851684e+001
1.651192e+003,2.687689e+001
1.652156e+003,2.475429e+001
1.653120e+003,2.504584e+001
1.654084e+003,2.751794e+001
1.655048e+003,2.948248e+001
1.656013e+003,3.031679e+001
1.656977e+003,3.052820e+001
1.657941e+003,2.980718e+001
1.658905e+003,2.862164e+001
1.659870e+003,2.820174e+001
1.660834e+003,2.862469e+001
1.661798e+003,2.919634e+001
1.662762e+003,2.958227e+001
1.663727e+003,2.998592e+001
1.664691e+003,3.081524e+001
1.665655e+003,3.131072e+001
1.666619e+003,3.039782e+001
1.667583e+003,2.917293e+001
1.668548e+003,2.995098e+001
1.669512e+003,3.220122e+001
1.670476e+003,3.246178e+001
1.671440e+003,2.983730e+001
1.672405e+003,2.712774e+001
1.673369e+003,2.590739e+001
1.674333e+003,2.565984e+001
1.675297e+003,2.591096e+001
1.676262e+003,2.654485e+001
1.677226e+003,2.723191e+001
1.678190e+003,2.817680e+001
1.679154e+003,2.840730e+001
1.680119e+003,2.707506e+001
1.681083e+003,2.531711e+001
1.682047e+003,2.354509e+001
1.683011e+003,2.241913e+001
1.683975e+003,2.356706e+001
1.684940e+003,2.683652e+001
1.685904e+003,2.975382e+001
1.686868e+003,3.116034e+001
1.687832e+003,3.188382e+001
1.688797e+003,3.249935e+001
1.689761e+003,3.258359e+001
1.690725e+003,3.200610e+001
1.691689e+003,3.097555e+001
1.692654e+003,3.041896e+001
1.693618e+003,3.084292e+001
1.694582e+003,3.203978e+001
1.695546e+003,3.400948e+001
1.696510e+003,3.522218e+001
1.697475e+003,3.471681e+001
1.698439e+003,3.357175e+001
1.699403e+003,3.311640e+001
1.700367e+003,3.355786e+001
1.701332e+003,3.447504e+001
1.702296e+003,3.558700e+001
1.703260e+003,3.689026e+001
1.704224e+003,3.838824e+001
1.705189e+003,3.956054e+001
1.706153e+003,3.919661e+001
1.707117e+003,3.651800e+001
1.708081e+003,3.424119e+001
1.709046e+003,3.365050e+001
1.710010e+003,3.455774e+001
1.710974e+003,3.655112e+001
1.711938e+003,3.857089e+001
1.712902e+003,3.994053e+001
1.713867e+003,4.075134e+001
1.714831e+003,4.230307e+001
1.715795e+003,4.453194e+001
1.716759e+003,4.527090e+001
1.717724e+003,4.335441e+001
1.718688e+003,4.061299e+001
1.719652e+003,3.915998e+001
1.720616e+003,3.864368e+001
1.721581e+003,3.844931e+001
1.722545e+003,3.876538e+001
1.723509e+003,3.938244e+001
1.724473e+003,4.092797e+001
1.725438e+003,4.197261e+001
1.726402e+003,4.145806e+001
1.727366e+003,4.041959e+001
1.728330e+003,3.951512e+001
1.729294e+003,3.880341e+001
1.730259e+003,3.792979e+001
1.731223e+003,3.716195e+001
1.732187e+003,3.759085e+001
1.733151e+003,3.951512e+001
1.734116e+003,4.139266e+001
1.735080e+003,4.223322e+001
1.736044e+003,4.240657e+001
1.737008e+003,4.155606e+001
1.737973e+003,3.956873e+001
1.738937e+003,3.846050e+001
1.739901e+003,3.862200e+001
1.740865e+003,3.914711e+001
1.741829e+003,4.020219e+001
1.742794e+003,4.092551e+001
1.743758e+003,4.033591e+001
1.744722e+003,3.906543e+001
1.745686e+003,3.726968e+001
1.746651e+003,3.523976e+001
1.747615e+003,3.572756e+001
1.748579e+003,4.050578e+001
1.749543e+003,4.376368e+001
1.750508e+003,4.011578e+001
1.751472e+003,3.555139e+001
1.752436e+003,3.771724e+001
1.753400e+003,4.329998e+001
1.754365e+003,4.386552e+001
1.755329e+003,3.912028e+001
1.756293e+003,3.659113e+001
1.757257e+003,3.972897e+001
1.758221e+003,4.316506e+001
1.759186e+003,4.140481e+001
1.760150e+003,3.715385e+001
1.761114e+003,3.701093e+001
1.762078e+003,4.093170e+001
1.763043e+003,4.249713e+001
1.764007e+003,3.977675e+001
1.764971e+003,3.742046e+001
1.765935e+003,3.707853e+001
1.766900e+003,3.783317e+001
1.767864e+003,3.954443e+001
1.768828e+003,4.118887e+001
1.769792e+003,4.136372e+001
1.770756e+003,4.058870e+001
1.771721e+003,4.063516e+001
1.772685e+003,4.161206e+001
1.773649e+003,4.132507e+001
1.774613e+003,3.831841e+001
1.775578e+003,3.480244e+001
1.776542e+003,3.486234e+001
1.777506e+003,3.828567e+001
1.778470e+003,3.911136e+001
1.779435e+003,3.590440e+001
1.780399e+003,3.353468e+001
1.781363e+003,3.344238e+001
1.782327e+003,3.431183e+001
1.783292e+003,3.556295e+001
1.784256e+003,3.634746e+001
1.785220e+003,3.677879e+001
1.786184e+003,3.690989e+001
1.787148e+003,3.592260e+001
1.788113e+003,3.371023e+001
1.789077e+003,3.187855e+001
1.790041e+003,3.133851e+001
1.791005e+003,3.100204e+001
1.791970e+003,2.950677e+001
1.792934e+003,2.816002e+001
1.793898e+003,3.011192e+001
1.794862e+003,3.453674e+001
1.795827e+003,3.580392e+001
1.796791e+003,3.258931e+001
1.797755e+003,2.970100e+001
1.798719e+003,2.961282e+001
1.799683e+003,3.096686e+001
1.800648e+003,3.232463e+001
1.801612e+003,3.353545e+001
1.802576e+003,3.512549e+001
1.803540e+003,3.707364e+001
1.804505e+003,3.702925e+001
1.805469e+003,3.416414e+001
1.806433e+003,3.250027e+001
1.807397e+003,3.299219e+001
1.808362e+003,3.389726e+001
1.809326e+003,3.436961e+001
1.810290e+003,3.451770e+001
1.811254e+003,3.455942e+001
1.812219e+003,3.462556e+001
1.813183e+003,3.491426e+001
1.814147e+003,3.506155e+001
1.815111e+003,3.372137e+001
1.816075e+003,3.022954e+001
1.817040e+003,2.684251e+001
1.818004e+003,2.731024e+001
1.818968e+003,3.139804e+001
1.819932e+003,3.378920e+001
1.820897e+003,3.272200e+001
1.821861e+003,3.229855e+001
1.822825e+003,3.481176e+001
1.823789e+003,3.574918e+001
1.824754e+003,3.225871e+001
1.825718e+003,2.941338e+001
1.826682e+003,3.116836e+001
1.827646e+003,3.452625e+001
1.828610e+003,3.450751e+001
1.829575e+003,3.136147e+001
1.830539e+003,2.990977e+001
1.831503e+003,3.229587e+001
1.832467e+003,3.517075e+001
1.833432e+003,3.579118e+001
1.834396e+003,3.523231e+001
1.835360e+003,3.542034e+001
1.836324e+003,3.644537e+001
1.837289e+003,3.720313e+001
1.838253e+003,3.693052e+001
1.839217e+003,3.541023e+001
1.840181e+003,3.278670e+001
1.841146e+003,3.042343e+001
1.842110e+003,2.960657e+001
1.843074e+003,3.001994e+001
1.844038e+003,3.049449e+001
1.845002e+003,3.090435e+001
1.845967e+003,3.186483e+001
1.846931e+003,3.387702e+001
1.847895e+003,3.585980e+001
1.848859e+003,3.798140e+001
1.849824e+003,3.805680e+001
1.850788e+003,3.426705e+001
1.851752e+003,3.055294e+001
1.852716e+003,3.082163e+001
1.853681e+003,3.328436e+001
1.854645e+003,3.432243e+001
1.855609e+003,3.331981e+001
1.856573e+003,3.152075e+001
1.857537e+003,2.941775e+001
1.858502e+003,2.804602e+001
1.859466e+003,2.947504e+001
1.860430e+003,3.276576e+001
1.861394e+003,3.490580e+001
1.862359e+003,3.551211e+001
1.863323e+003,3.423483e+001
1.864287e+003,3.084598e+001
1.865251e+003,2.897504e+001
1.866216e+003,3.030253e+001
1.867180e+003,3.311246e+001
1.868144e+003,3.644061e+001
1.869108e+003,3.878432e+001
1.870073e+003,3.844366e+001
1.871037e+003,3.622656e+001
1.872001e+003,3.458424e+001
1.872965e+003,3.362662e+001
1.873929e+003,3.382735e+001
1.874894e+003,3.610145e+001
1.875858e+003,3.707583e+001
1.876822e+003,3.516338e+001
1.877786e+003,3.304245e+001
1.878751e+003,3.219778e+001
1.879715e+003,3.255161e+001
1.880679e+003,3.363239e+001
1.881643e+003,3.529301e+001
1.882608e+003,3.853734e+001
1.883572e+003,4.315282e+001
1.884536e+003,4.530697e+001
1.885500e+003,4.171136e+001
1.886464e+003,3.586066e+001
1.887429e+003,3.417530e+001
1.888393e+003,3.637387e+001
1.889357e+003,3.885933e+001
1.890321e+003,4.149739e+001
1.891286e+003,4.222066e+001
1.892250e+003,4.012816e+001
1.893214e+003,3.753891e+001
1.894178e+003,3.561489e+001
1.895143e+003,3.457242e+001
1.896107e+003,3.434088e+001
1.897071e+003,3.438663e+001
1.898035e+003,3.350553e+001
1.899000e+003,3.133781e+001
1.899964e+003,3.035743e+001
1.900928e+003,3.300066e+001
1.901892e+003,3.565813e+001
1.902856e+003,3.668719e+001
1.903821e+003,3.665401e+001
1.904785e+003,3.437225e+001
1.905749e+003,3.181787e+001
1.906713e+003,3.231440e+001
1.907678e+003,3.464609e+001
1.908642e+003,3.525416e+001
1.909606e+003,3.382252e+001
1.910570e+003,3.302925e+001
1.911535e+003,3.420890e+001
1.912499e+003,3.579982e+001
1.913463e+003,3.587465e+001
1.914427e+003,3.457412e+001
1.915391e+003,3.334569e+001
1.916356e+003,3.275162e+001
1.917320e+003,3.245394e+001
1.918284e+003,3.256821e+001
1.919248e+003,3.360772e+001
1.920213e+003,3.529062e+001
1.921177e+003,3.545053e+001
1.922141e+003,3.268687e+001
1.923105e+003,2.986456e+001
1.924070e+003,3.029045e+001
1.925034e+003,3.258994e+001
1.925998e+003,3.260576e+001
1.926962e+003,3.020887e+001
1.927927e+003,3.025835e+001
1.928891e+003,3.585039e+001
1.929855e+003,3.901275e+001
1.930819e+003,3.624940e+001
1.931783e+003,3.305029e+001
1.932748e+003,3.232726e+001
1.933712e+003,3.263915e+001
1.934676e+003,3.208901e+001
1.935640e+003,3.137866e+001
1.936605e+003,3.245824e+001
1.937569e+003,3.478564e+001
1.938533e+003,3.574062e+001
1.939497e+003,3.468439e+001
1.940462e+003,3.341625e+001
1.941426e+003,3.262958e+001
1.942390e+003,3.204520e+001
1.943354e+003,3.179047e+001
1.944318e+003,3.134234e+001
1.945283e+003,3.039918e+001
1.946247e+003,2.964273e+001
1.947211e+003,2.903864e+001
1.948175e+003,2.853058e+001
1.949140e+003,2.870527e+001
1.950104e+003,2.947781e+001
1.951068e+003,2.954163e+001
1.952032e+003,2.775982e+001
1.952997e+003,2.531074e+001
1.953961e+003,2.517392e+001
1.954925e+003,2.755048e+001
1.955889e+003,2.928217e+001
1.956854e+003,3.103456e+001
1.957818e+003,3.116879e+001
1.958782e+003,2.776820e+001
1.959746e+003,2.585364e+001
1.960710e+003,2.671491e+001
1.961675e+003,2.811874e+001
1.962639e+003,2.996229e+001
1.963603e+003,3.149207e+001
1.964567e+003,3.085804e+001
1.965532e+003,2.848825e+001
1.966496e+003,2.698823e+001
1.967460e+003,2.711975e+001
1.968424e+003,2.800946e+001
1.969389e+003,3.059085e+001
1.970353e+003,3.199469e+001
1.971317e+003,2.855663e+001
1.972281e+003,2.380115e+001
1.973245e+003,2.197677e+001
1.974210e+003,2.291016e+001
1.975174e+003,2.578863e+001
1.976138e+003,2.971161e+001
1.977102e+003,3.290249e+001
1.978067e+003,3.443426e+001
1.979031e+003,3.422020e+001
1.979995e+003,3.229595e+001
1.980959e+003,2.998592e+001
1.981924e+003,2.988500e+001
1.982888e+003,3.180888e+001
1.983852e+003,3.305656e+001
1.984816e+003,3.337269e+001
1.985781e+003,3.214751e+001
1.986745e+003,2.930601e+001
1.987709e+003,2.797758e+001
1.988673e+003,2.914106e+001
1.989637e+003,3.046946e+001
1.990602e+003,3.049576e+001
1.991566e+003,2.932511e+001
1.992530e+003,2.717913e+001
1.993494e+003,2.496896e+001
1.994459e+003,2.514406e+001
1.995423e+003,2.825790e+001
1.996387e+003,2.963359e+001
1.997351e+003,2.680740e+001
1.998316e+003,2.526716e+001
1.999280e+003,2.796950e+001
2.000244e+003,3.095793e+001
2.001208e+003,3.232784e+001
2.002172e+003,3.271705e+001
2.003137e+003,3.205866e+001
2.004101e+003,3.079752e+001
2.005065e+003,3.013141e+001
2.006029e+003,3.035418e+001
2.006994e+003,3.064056e+001
2.007958e+003,3.027736e+001
2.008922e+003,2.972381e+001
2.009886e+003,3.027013e+001
2.010851e+003,3.122454e+001
2.011815e+003,3.139887e+001
2.012779e+003,3.085948e+001
2.013743e+003,2.958872e+001
2.014708e+003,2.790653e+001
2.015672e+003,2.658062e+001
2.016636e+003,2.599344e+001
2.017600e+003,2.642830e+001
2.018564e+003,2.776437e+001
2.019529e+003,2.910545e+001
2.020493e+003,2.990511e+001
2.021457e+003,3.064295e+001
2.022421e+003,3.165870e+001
2.023386e+003,3.257993e+001
2.024350e+003,3.295460e+001
2.025314e+003,3.285912e+001
2.026278e+003,3.180554e+001
2.027243e+003,2.974672e+001
2.028207e+003,2.857744e+001
2.029171e+003,2.886009e+001
2.030135e+003,2.978733e+001
2.031099e+003,3.106629e+001
2.032064e+003,3.182334e+001
2.033028e+003,3.039767e+001
2.033992e+003,2.703738e+001
2.034956e+003,2.573259e+001
2.035921e+003,2.822811e+001
2.036885e+003,3.045338e+001
2.037849e+003,3.289998e+001
2.038813e+003,3.448349e+001
2.039778e+003,3.142371e+001
2.040742e+003,2.878954e+001
2.041706e+003,3.123993e+001
2.042670e+003,3.405135e+001
2.043635e+003,3.262035e+001
2.044599e+003,2.914671e+001
2.045563e+003,2.727946e+001
2.046527e+003,2.729309e+001
2.047491e+003,2.815811e+001
2.048456e+003,3.015145e+001
2.049420e+003,3.191915e+001
2.050384e+003,3.192588e+001
2.051348e+003,3.146284e+001
2.052313e+003,3.210132e+001
2.053277e+003,3.251038e+001
2.054241e+003,3.114565e+001
2.055205e+003,2.953600e+001
2.056170e+003,2.915086e+001
2.057134e+003,2.932670e+001
2.058098e+003,2.908930e+001
2.059062e+003,2.872891e+001
2.060027e+003,2.926509e+001
2.060991e+003,3.115469e+001
2.061955e+003,3.262620e+001
2.062919e+003,3.132319e+001
2.063884e+003,2.909649e+001
2.064848e+003,2.923804e+001
2.065812e+003,3.057003e+001
2.066776e+003,2.921044e+001
2.067740e+003,2.600358e+001
2.068705e+003,2.565788e+001
2.069669e+003,2.852337e+001
2.070633e+003,3.071097e+001
2.071597e+003,3.034627e+001
2.072562e+003,2.859176e+001
2.073526e+003,2.684513e+001
2.074490e+003,2.612824e+001
2.075454e+003,2.738525e+001
2.076418e+003,2.946801e+001
2.077383e+003,2.916249e+001
2.078347e+003,2.630358e+001
2.079311e+003,2.357047e+001
2.080275e+003,2.242044e+001
2.081240e+003,2.520940e+001
2.082204e+003,3.210372e+001
2.083168e+003,3.686237e+001
2.084132e+003,3.541102e+001
2.085096e+003,3.122488e+001
2.086061e+003,2.900970e+001
2.087025e+003,2.838683e+001
2.087989e+003,2.700578e+001
2.088953e+003,2.480511e+001
2.089918e+003,2.370969e+001
2.090882e+003,2.386953e+001
2.091846e+003,2.433492e+001
2.092810e+003,2.537937e+001
2.093775e+003,2.578114e+001
2.094739e+003,2.442034e+001
2.095703e+003,2.320086e+001
2.096667e+003,2.412647e+001
2.097632e+003,2.515092e+001
2.098596e+003,2.319711e+001
2.099560e+003,1.951077e+001
2.100524e+003,1.791465e+001
2.101489e+003,1.797169e+001
2.102453e+003,1.846545e+001
2.103417e+003,2.052423e+001
2.104381e+003,2.199635e+001
2.105345e+003,2.305669e+001
2.106310e+003,2.342502e+001
2.107274e+003,2.145523e+001
2.108238e+003,2.052282e+001
2.109202e+003,2.447890e+001
2.110167e+003,2.940735e+001
2.111131e+003,2.925299e+001
2.112095e+003,2.484951e+001
2.113059e+003,2.167632e+001
2.114023e+003,2.142276e+001
2.114988e+003,2.298026e+001
2.115952e+003,2.680943e+001
2.116916e+003,2.811098e+001
2.117880e+003,2.411658e+001
2.118845e+003,2.000074e+001
2.119809e+003,1.950197e+001
2.120773e+003,2.069768e+001
2.121737e+003,2.108707e+001
2.122702e+003,2.062967e+001
2.123666e+003,1.956212e+001
2.124630e+003,1.833968e+001
2.125594e+003,1.926910e+001
2.126559e+003,2.327625e+001
2.127523e+003,2.469972e+001
2.128487e+003,1.874382e+001
2.129451e+003,1.428268e+001
2.130416e+003,1.708664e+001
2.131380e+003,2.102220e+001
2.132344e+003,2.191102e+001
2.133308e+003,2.109155e+001
2.134272e+003,1.887670e+001
2.135237e+003,1.667762e+001
2.136201e+003,1.818479e+001
2.137165e+003,2.273995e+001
2.138129e+003,2.477926e+001
2.139094e+003,2.247482e+001
2.140058e+003,2.026245e+001
2.141022e+003,2.077336e+001
2.141986e+003,2.105449e+001
2.142950e+003,1.870605e+001
2.143915e+003,1.560587e+001
2.144879e+003,1.235414e+001
2.145843e+003,1.016590e+001
2.146807e+003,1.244155e+001
2.147772e+003,1.743005e+001
2.148736e+003,1.974119e+001
2.149700e+003,1.844718e+001
2.150664e+003,1.665495e+001
2.151629e+003,1.592641e+001
2.152593e+003,1.608020e+001
2.153557e+003,1.757697e+001
2.154521e+003,1.914118e+001
2.155486e+003,1.869224e+001
2.156450e+003,1.689706e+001
2.157414e+003,1.452651e+001
2.158378e+003,1.244492e+001
2.159343e+003,1.216785e+001
2.160307e+003,1.341905e+001
2.161271e+003,1.515776e+001
2.162235e+003,1.675787e+001
2.163199e+003,1.753140e+001
2.164164e+003,1.729932e+001
2.165128e+003,1.668311e+001
2.166092e+003,1.613692e+001
2.167056e+003,1.602702e+001
2.168021e+003,1.695779e+001
2.168985e+003,1.758163e+001
2.169949e+003,1.553544e+001
2.170913e+003,1.234034e+001
2.171877e+003,1.136284e+001
2.172842e+003,1.267369e+001
2.173806e+003,1.477514e+001
2.174770e+003,1.681441e+001
2.175734e+003,1.807300e+001
2.176699e+003,1.816864e+001
2.177663e+003,1.716634e+001
2.178627e+003,1.518095e+001
2.179591e+003,1.310500e+001
2.180556e+003,1.148018e+001
2.181520e+003,1.042356e+001
2.182484e+003,1.169373e+001
2.183448e+003,1.431614e+001
2.184413e+003,1.492130e+001
2.185377e+003,1.347380e+001
2.186341e+003,1.043032e+001
2.187305e+003,6.538818e+000
2.188270e+003,5.474178e+000
2.189234e+003,8.752447e+000
2.190198e+003,1.290232e+001
2.191162e+003,1.470271e+001
2.192126e+003,1.428755e+001
2.193091e+003,1.194131e+001
2.194055e+003,8.986746e+000
2.195019e+003,8.114410e+000
2.195983e+003,8.967068e+000
2.196948e+003,1.001542e+001
2.197912e+003,1.089789e+001
2.198876e+003,1.094939e+001
2.199840e+003,1.008128e+001
2.200804e+003,9.446709e+000
2.201769e+003,9.413227e+000
2.202733e+003,8.876770e+000
2.203697e+003,7.292112e+000
2.204661e+003,6.048407e+000
2.205626e+003,6.805880e+000
2.206590e+003,8.787977e+000
2.207554e+003,1.044001e+001
2.208518e+003,1.124392e+001
2.209483e+003,1.069359e+001
2.210447e+003,9.321924e+000
2.211411e+003,7.981649e+000
2.212375e+003,6.891329e+000
2.213340e+003,6.635315e+000
2.214304e+003,7.204020e+000
2.215268e+003,6.545076e+000
2.216232e+003,3.151899e+000
2.217197e+003,2.221165e-001
2.218161e+003,2.212027e+000
2.219125e+003,5.983995e+000
2.220089e+003,5.990351e+000
2.221053e+003,4.119465e+000
2.222018e+003,2.872559e+000
2.222982e+003,1.932735e+000
2.223946e+003,2.348946e+000
2.224910e+003,4.103361e+000
2.225875e+003,5.194223e+000
2.226839e+003,4.955877e+000
2.227803e+003,3.654312e+000
2.228767e+003,1.559002e+000
2.229731e+003,1.701555e+000
2.230696e+003,7.763746e+000
2.231660e+003,1.409512e+001
2.232624e+003,1.253887e+001
2.233588e+003,7.724579e+000
2.234553e+003,6.297934e+000
2.235517e+003,6.969879e+000
2.236481e+003,7.317318e+000
2.237445e+003,6.858557e+000
2.238410e+003,5.803011e+000
2.239374e+003,4.898663e+000
2.240338e+003,5.818789e+000
2.241302e+003,8.673384e+000
2.242267e+003,1.001444e+001
2.243231e+003,7.317675e+000
2.244195e+003,4.279615e+000
2.245159e+003,4.787037e+000
2.246124e+003,6.282209e+000
2.247088e+003,5.806511e+000
2.248052e+003,4.437029e+000
2.249016e+003,3.905270e+000
2.249980e+003,4.185350e+000
2.250945e+003,4.967770e+000
2.251909e+003,6.057577e+000
2.252873e+003,6.758179e+000
2.253837e+003,6.708002e+000
2.254802e+003,6.367554e+000
2.255766e+003,6.190393e+000
2.256730e+003,6.614262e+000
2.257694e+003,8.789488e+000
2.258658e+003,9.819344e+000
2.259623e+003,6.117277e+000
2.260587e+003,1.770271e+000
2.261551e+003,0.000000e+000
2.262515e+003,5.758762e-001
2.263480e+003,5.123814e+000
2.264444e+003,1.066310e+001
2.265408e+003,1.069141e+001
2.266372e+003,5.683239e+000
2.267337e+003,2.444738e+000
2.268301e+003,3.043287e+000
2.269265e+003,4.099983e+000
2.270229e+003,5.543896e+000
2.271194e+003,7.033850e+000
2.272158e+003,6.336502e+000
2.273122e+003,5.162483e+000
2.274086e+003,4.830400e+000
2.275051e+003,5.123449e+000
2.276015e+003,7.288712e+000
2.276979e+003,9.604195e+000
2.277943e+003,8.518143e+000
2.278907e+003,5.424356e+000
2.279872e+003,4.623426e+000
2.280836e+003,6.255194e+000
2.281800e+003,7.963394e+000
2.282764e+003,1.058512e+001
2.283729e+003,1.140584e+001
2.284693e+003,8.568790e+000
2.285657e+003,6.874525e+000
2.286621e+003,7.183813e+000
2.287585e+003,7.150282e+000
2.288550e+003,5.125067e+000
2.289514e+003,4.258375e+000
2.290478e+003,8.919222e+000
2.291442e+003,1.537391e+001
2.292407e+003,1.675257e+001
2.293371e+003,1.374427e+001
2.294335e+003,1.141147e+001
2.295299e+003,9.610235e+000
2.296264e+003,9.120604e+000
2.297228e+003,1.110297e+001
2.298192e+003,1.238003e+001
2.299156e+003,1.281690e+001
2.300121e+003,1.361694e+001
2.301085e+003,1.469910e+001
2.302049e+003,1.497244e+001
2.303013e+003,1.385052e+001
2.303978e+003,1.289916e+001
2.304942e+003,1.369799e+001
2.305906e+003,1.526625e+001
2.306870e+003,1.561804e+001
2.307834e+003,1.498406e+001
2.308799e+003,1.576745e+001
2.309763e+003,1.845167e+001
2.310727e+003,2.003203e+001
2.311691e+003,1.995945e+001
2.312656e+003,2.003911e+001
2.313620e+003,2.064906e+001
2.314584e+003,2.066734e+001
2.315548e+003,1.972153e+001
2.316512e+003,1.756754e+001
2.317477e+003,1.422638e+001
2.318441e+003,1.293436e+001
2.319405e+003,1.737594e+001
2.320369e+003,2.458505e+001
2.321334e+003,2.862176e+001
2.322298e+003,2.971585e+001
2.323262e+003,2.980648e+001
2.324226e+003,3.028238e+001
2.325191e+003,3.400072e+001
2.326155e+003,3.948940e+001
2.327119e+003,4.163520e+001
2.328083e+003,3.985976e+001
2.329048e+003,3.764487e+001
2.330012e+003,3.688667e+001
2.330976e+003,3.691949e+001
2.331940e+003,3.648158e+001
2.332905e+003,3.646926e+001
2.333869e+003,4.050513e+001
2.334833e+003,4.403350e+001
2.335797e+003,4.066405e+001
2.336761e+003,3.588246e+001
2.337726e+003,3.459490e+001
2.338690e+003,3.554094e+001
2.339654e+003,3.844212e+001
2.340618e+003,4.215149e+001
2.341583e+003,4.427323e+001
2.342547e+003,4.489017e+001
2.343511e+003,4.555082e+001
2.344475e+003,4.632781e+001
2.345439e+003,4.766500e+001
2.346404e+003,5.022670e+001
2.347368e+003,5.213210e+001
2.348332e+003,5.309879e+001
2.349296e+003,5.424409e+001
2.350261e+003,5.548975e+001
2.351225e+003,5.783155e+001
2.352189e+003,6.208078e+001
2.353153e+003,6.646637e+001
2.354118e+003,6.888555e+001
2.355082e+003,7.026385e+001
2.356046e+003,7.364082e+001
2.357010e+003,7.912010e+001
2.357975e+003,8.174833e+001
2.358939e+003,8.027428e+001
2.359903e+003,8.058466e+001
2.360867e+003,8.220029e+001
2.361832e+003,8.395650e+001
2.362796e+003,8.720040e+001
2.363760e+003,8.898534e+001
2.364724e+003,8.801930e+001
2.365688e+003,8.888544e+001
2.366653e+003,9.370911e+001
2.367617e+003,9.861179e+001
2.368581e+003,1.001373e+002
2.369545e+003,9.981829e+001
2.370510e+003,1.002898e+002
2.371474e+003,1.018118e+002
2.372438e+003,1.049350e+002
2.373402e+003,1.088387e+002
2.374366e+003,1.099535e+002
2.375331e+003,1.091811e+002
2.376295e+003,1.112460e+002
2.377259e+003,1.162119e+002
2.378223e+003,1.210142e+002
2.379188e+003,1.244347e+002
2.380152e+003,1.262203e+002
2.381116e+003,1.263884e+002
2.382080e+003,1.256954e+002
2.383045e+003,1.240189e+002
2.384009e+003,1.229272e+002
2.384973e+003,1.247235e+002
2.385937e+003,1.272297e+002
2.386902e+003,1.297020e+002
2.387866e+003,1.314128e+002
2.388830e+003,1.289714e+002
2.389794e+003,1.255155e+002
2.390759e+003,1.266943e+002
2.391723e+003,1.308183e+002
2.392687e+003,1.329935e+002
2.393651e+003,1.333510e+002
2.394615e+003,1.352576e+002
2.395580e+003,1.397560e+002
2.396544e+003,1.417891e+002
2.397508e+003,1.374325e+002
2.398472e+003,1.355857e+002
2.399437e+003,1.407495e+002
2.400401e+003,1.441072e+002
2.401365e+003,1.407090e+002
2.402329e+003,1.384906e+002
2.403293e+003,1.431290e+002
2.404258e+003,1.488655e+002
2.405222e+003,1.499451e+002
2.406186e+003,1.481112e+002
2.407150e+003,1.460072e+002
2.408115e+003,1.438269e+002
2.409079e+003,1.443374e+002
2.410043e+003,1.473231e+002
2.411007e+003,1.491405e+002
2.411972e+003,1.499107e+002
2.412936e+003,1.505878e+002
2.413900e+003,1.510594e+002
2.414864e+003,1.519120e+002
2.415829e+003,1.535894e+002
2.416793e+003,1.547480e+002
2.417757e+003,1.545423e+002
2.418721e+003,1.551884e+002
2.419686e+003,1.590406e+002
2.420650e+003,1.627741e+002
2.421614e+003,1.619369e+002
2.422578e+003,1.599464e+002
2.423542e+003,1.608448e+002
2.424507e+003,1.616955e+002
2.425471e+003,1.580897e+002
2.426435e+003,1.543745e+002
2.427399e+003,1.568638e+002
2.428364e+003,1.621130e+002
2.429328e+003,1.643012e+002
2.430292e+003,1.633652e+002
2.431256e+003,1.599828e+002
2.432220e+003,1.533861e+002
2.433185e+003,1.506039e+002
2.434149e+003,1.557860e+002
2.435113e+003,1.576716e+002
2.436077e+003,1.535102e+002
2.437042e+003,1.513929e+002
2.438006e+003,1.542297e+002
2.438970e+003,1.562972e+002
2.439934e+003,1.549991e+002
2.440899e+003,1.522181e+002
2.441863e+003,1.493327e+002
2.442827e+003,1.473461e+002
2.443791e+003,1.473648e+002
2.444756e+003,1.480387e+002
2.445720e+003,1.465462e+002
2.446684e+003,1.433144e+002
2.447648e+003,1.395591e+002
2.448613e+003,1.359577e+002
2.449577e+003,1.355257e+002
2.450541e+003,1.373274e+002
2.451505e+003,1.374350e+002
2.452469e+003,1.357207e+002
2.453434e+003,1.338917e+002
2.454398e+003,1.321943e+002
2.455362e+003,1.317294e+002
2.456326e+003,1.343713e+002
2.457291e+003,1.360585e+002
2.458255e+003,1.319040e+002
2.459219e+003,1.277194e+002
2.460183e+003,1.262043e+002
2.461147e+003,1.245080e+002
2.462112e+003,1.217820e+002
2.463076e+003,1.198933e+002
2.464040e+003,1.195677e+002
2.465004e+003,1.195715e+002
2.465969e+003,1.201044e+002
2.466933e+003,1.209345e+002
2.467897e+003,1.198380e+002
2.468861e+003,1.167348e+002
2.469826e+003,1.156704e+002
2.470790e+003,1.172754e+002
2.471754e+003,1.166876e+002
2.472718e+003,1.140431e+002
2.473683e+003,1.132147e+002
2.474647e+003,1.137878e+002
2.475611e+003,1.139028e+002
2.476575e+003,1.136508e+002
2.477540e+003,1.130585e+002
2.478504e+003,1.118279e+002
2.479468e+003,1.094121e+002
2.480432e+003,1.054766e+002
2.481396e+003,1.027098e+002
2.482361e+003,1.051593e+002
2.483325e+003,1.085359e+002
2.484289e+003,1.072740e+002
2.485253e+003,1.041215e+002
2.486218e+003,1.014688e+002
2.487182e+003,9.935811e+001
2.488146e+003,9.747166e+001
2.489110e+003,9.688479e+001
2.490074e+003,1.006419e+002
2.491039e+003,1.064771e+002
2.492003e+003,1.064858e+002
2.492967e+003,9.966118e+001
2.493931e+003,9.719206e+001
2.494896e+003,1.020403e+002
2.495860e+003,1.033974e+002
2.496824e+003,1.001017e+002
2.497788e+003,9.816302e+001
2.498753e+003,9.793996e+001
2.499717e+003,9.801488e+001
2.500681e+003,9.824789e+001
2.501645e+003,9.915547e+001
2.502610e+003,1.007417e+002
2.503574e+003,1.006643e+002
2.504538e+003,9.733098e+001
2.505502e+003,9.422507e+001
2.506467e+003,9.519023e+001
2.507431e+003,9.724074e+001
2.508395e+003,9.665955e+001
2.509359e+003,9.552246e+001
2.510323e+003,9.697034e+001
2.511288e+003,9.864359e+001
2.512252e+003,9.645290e+001
2.513216e+003,9.290266e+001
2.514180e+003,9.247757e+001
2.515145e+003,9.456274e+001
2.516109e+003,9.618771e+001
2.517073e+003,9.694809e+001
2.518037e+003,9.752184e+001
2.519001e+003,9.826807e+001
2.519966e+003,9.737334e+001
2.520930e+003,9.347716e+001
2.521894e+003,9.218353e+001
2.522858e+003,9.485293e+001
2.523823e+003,9.601929e+001
2.524787e+003,9.399780e+001
2.525751e+003,9.298890e+001
2.526715e+003,9.497147e+001
2.527680e+003,9.749886e+001
2.528644e+003,9.888698e+001
2.529608e+003,9.909970e+001
2.530572e+003,9.702861e+001
2.531537e+003,9.429874e+001
2.532501e+003,9.397220e+001
2.533465e+003,9.487394e+001
2.534429e+003,9.595002e+001
2.535394e+003,9.722850e+001
2.536358e+003,9.873063e+001
2.537322e+003,9.944701e+001
2.538286e+003,9.795625e+001
2.539250e+003,9.532281e+001
2.540215e+003,9.385369e+001
2.541179e+003,9.355048e+001
2.542143e+003,9.324643e+001
2.543107e+003,9.366102e+001
2.544072e+003,9.397552e+001
2.545036e+003,9.294167e+001
2.546000e+003,9.403916e+001
2.546964e+003,9.797798e+001
2.547928e+003,9.914803e+001
2.548893e+003,9.635128e+001
2.549857e+003,9.307714e+001
2.550821e+003,9.095279e+001
2.551785e+003,9.091122e+001
2.552750e+003,9.340567e+001
2.553714e+003,9.476672e+001
2.554678e+003,9.109910e+001
2.555642e+003,8.731332e+001
2.556607e+003,8.847679e+001
2.557571e+003,9.035291e+001
2.558535e+003,8.981779e+001
2.559499e+003,8.817931e+001
2.560464e+003,8.693755e+001
2.561428e+003,8.631642e+001
2.562392e+003,8.562365e+001
2.563356e+003,8.465819e+001
2.564321e+003,8.370862e+001
2.565285e+003,8.306948e+001
2.566249e+003,8.300470e+001
2.567213e+003,8.305663e+001
2.568177e+003,8.174683e+001
2.569142e+003,7.909494e+001
2.570106e+003,7.829096e+001
2.571070e+003,7.965314e+001
2.572034e+003,8.123847e+001
2.572999e+003,8.263108e+001
2.573963e+003,8.274562e+001
2.574927e+003,8.111616e+001
2.575891e+003,7.869691e+001
2.576855e+003,7.594981e+001
2.577820e+003,7.443465e+001
2.578784e+003,7.654195e+001
2.579748e+003,7.809017e+001
2.580712e+003,7.593370e+001
2.581677e+003,7.368093e+001
2.582641e+003,7.136580e+001
2.583605e+003,6.966994e+001
2.584569e+003,7.043725e+001
2.585534e+003,7.098874e+001
2.586498e+003,6.989424e+001
2.587462e+003,6.764786e+001
2.588426e+003,6.401678e+001
2.589391e+003,6.080417e+001
2.590355e+003,6.210659e+001
2.591319e+003,6.598508e+001
2.592283e+003,6.587774e+001
2.593248e+003,6.325198e+001
2.594212e+003,6.187319e+001
2.595176e+003,6.167496e+001
2.596140e+003,6.279205e+001
2.597104e+003,6.445566e+001
2.598069e+003,6.585452e+001
2.599033e+003,6.617844e+001
2.599997e+003,6.329901e+001
2.600961e+003,5.786368e+001
2.601926e+003,5.511391e+001
2.602890e+003,5.635159e+001
2.603854e+003,5.761322e+001
2.604818e+003,5.889170e+001
2.605782e+003,5.816531e+001
2.606747e+003,5.479745e+001
2.607711e+003,5.381487e+001
2.608675e+003,5.646414e+001
2.609639e+003,5.777274e+001
2.610604e+003,5.602433e+001
2.611568e+003,5.437200e+001
2.612532e+003,5.458286e+001
2.613496e+003,5.514785e+001
2.614461e+003,5.457431e+001
2.615425e+003,5.351897e+001
2.616389e+003,5.325699e+001
2.617353e+003,5.253176e+001
2.618318e+003,4.985110e+001
2.619282e+003,4.730279e+001
2.620246e+003,4.721091e+001
2.621210e+003,4.841676e+001
2.622175e+003,4.864669e+001
2.623139e+003,4.827641e+001
2.624103e+003,4.832204e+001
2.625067e+003,4.806337e+001
2.626031e+003,4.707034e+001
2.626996e+003,4.671819e+001
2.627960e+003,4.862276e+001
2.628924e+003,5.139210e+001
2.629888e+003,5.034688e+001
2.630853e+003,4.676078e+001
2.631817e+003,4.672646e+001
2.632781e+003,5.012281e+001
2.633745e+003,5.114003e+001
2.634709e+003,4.889017e+001
2.635674e+003,4.762934e+001
2.636638e+003,4.842566e+001
2.637602e+003,4.916694e+001
2.638566e+003,5.060818e+001
2.639531e+003,5.119165e+001
2.640495e+003,4.799670e+001
2.641459e+003,4.583728e+001
2.642423e+003,4.545107e+001
2.643388e+003,4.610479e+001
2.644352e+003,4.751811e+001
2.645316e+003,4.863097e+001
2.646280e+003,4.899409e+001
2.647245e+003,4.898430e+001
2.648209e+003,4.952323e+001
2.649173e+003,4.970134e+001
2.650137e+003,4.740961e+001
2.651102e+003,4.533360e+001
2.652066e+003,4.618594e+001
2.653030e+003,4.636582e+001
2.653994e+003,4.471465e+001
2.654958e+003,4.289383e+001
2.655923e+003,4.140554e+001
2.656887e+003,4.070766e+001
2.657851e+003,4.045500e+001
2.658815e+003,3.998922e+001
2.659780e+003,3.925574e+001
2.660744e+003,3.871919e+001
2.661708e+003,3.912259e+001
2.662672e+003,4.009467e+001
2.663636e+003,3.968170e+001
2.664601e+003,3.844342e+001
2.665565e+003,3.829671e+001
2.666529e+003,3.883813e+001
2.667493e+003,3.935539e+001
2.668458e+003,3.978637e+001
2.669422e+003,3.983284e+001
2.670386e+003,3.896770e+001
2.671350e+003,3.729813e+001
2.672315e+003,3.589310e+001
2.673279e+003,3.567474e+001
2.674243e+003,3.599338e+001
2.675207e+003,3.576699e+001
2.676172e+003,3.525484e+001
2.677136e+003,3.372356e+001
2.678100e+003,3.144728e+001
2.679064e+003,3.093177e+001
2.680029e+003,3.178261e+001
2.680993e+003,3.347037e+001
2.681957e+003,3.584369e+001
2.682921e+003,3.622582e+001
2.683885e+003,3.335956e+001
2.684850e+003,3.056044e+001
2.685814e+003,3.060314e+001
2.686778e+003,3.128550e+001
2.687742e+003,3.004051e+001
2.688707e+003,3.044348e+001
2.689671e+003,3.412394e+001
2.690635e+003,3.603072e+001
2.691599e+003,3.559023e+001
2.692563e+003,3.438939e+001
2.693528e+003,3.317525e+001
2.694492e+003,3.062092e+001
2.695456e+003,2.555488e+001
2.696420e+003,2.258090e+001
2.697385e+003,2.747974e+001
2.698349e+003,3.284233e+001
2.699313e+003,2.795934e+001
2.700277e+003,2.233674e+001
2.701242e+003,2.515898e+001
2.702206e+003,2.881473e+001
2.703170e+003,2.743229e+001
2.704134e+003,2.459246e+001
2.705099e+003,2.404013e+001
2.706063e+003,2.448927e+001
2.707027e+003,2.408809e+001
2.707991e+003,2.329080e+001
2.708956e+003,2.283057e+001
2.709920e+003,2.236718e+001
2.710884e+003,2.290149e+001
2.711848e+003,2.413966e+001
2.712813e+003,2.370085e+001
2.713777e+003,2.305722e+001
2.714741e+003,2.425223e+001
2.715705e+003,2.512206e+001
2.716669e+003,2.383382e+001
2.717634e+003,2.174409e+001
2.718598e+003,2.108870e+001
2.719562e+003,2.221256e+001
2.720526e+003,2.178327e+001
2.721490e+003,1.799572e+001
2.722455e+003,1.704821e+001
2.723419e+003,2.014942e+001
2.724383e+003,1.901768e+001
2.725347e+003,1.449112e+001
2.726312e+003,1.400778e+001
2.727276e+003,1.626268e+001
2.728240e+003,1.533004e+001
2.729204e+003,1.238233e+001
2.730169e+003,1.255390e+001
2.731133e+003,1.573867e+001
2.732097e+003,1.854388e+001
2.733061e+003,2.057927e+001
2.734026e+003,2.142497e+001
2.734990e+003,2.371845e+001
2.735954e+003,2.352500e+001
2.736918e+003,1.858412e+001
2.737883e+003,1.602230e+001
2.738847e+003,1.666965e+001
2.739811e+003,1.712605e+001
2.740775e+003,1.656689e+001
2.741740e+003,1.573461e+001
2.742704e+003,1.553395e+001
2.743668e+003,1.566545e+001
2.744632e+003,1.500497e+001
2.745596e+003,1.455148e+001
2.746561e+003,1.396672e+001
2.747525e+003,1.261531e+001
2.748489e+003,1.157306e+001
2.749453e+003,1.130097e+001
2.750417e+003,1.240175e+001
2.751382e+003,1.379411e+001
2.752346e+003,1.444156e+001
2.753310e+003,1.381461e+001
2.754274e+003,1.155706e+001
2.755239e+003,1.005788e+001
2.756203e+003,1.237940e+001
2.757167e+003,1.498127e+001
2.758131e+003,1.463552e+001
2.759096e+003,1.299517e+001
2.760060e+003,9.918009e+000
2.761024e+003,8.045816e+000
2.761988e+003,9.767874e+000
2.762953e+003,1.179360e+001
2.763917e+003,1.217042e+001
2.764881e+003,1.221382e+001
2.765845e+003,1.324533e+001
2.766810e+003,1.373455e+001
2.767774e+003,1.147001e+001
2.768738e+003,8.959816e+000
2.769702e+003,9.777033e+000
2.770667e+003,1.212704e+001
2.771631e+003,1.363312e+001
2.772595e+003,1.367994e+001
2.773559e+003,1.324245e+001
2.774523e+003,1.284521e+001
2.775488e+003,1.276481e+001
2.776452e+003,1.340494e+001
2.777416e+003,1.287798e+001
2.778380e+003,1.051967e+001
2.779344e+003,1.201722e+001
2.780309e+003,1.668201e+001
2.781273e+003,1.466579e+001
2.782237e+003,1.099791e+001
2.783201e+003,1.265268e+001
2.784166e+003,1.460001e+001
2.785130e+003,1.408885e+001
2.786094e+003,1.271877e+001
2.787058e+003,1.177594e+001
2.788023e+003,1.195849e+001
2.788987e+003,1.298823e+001
2.789951e+003,1.404844e+001
2.790915e+003,1.496231e+001
2.791880e+003,1.572750e+001
2.792844e+003,1.458182e+001
2.793808e+003,1.265271e+001
2.794772e+003,1.225463e+001
2.795737e+003,1.192357e+001
2.796701e+003,1.120251e+001
2.797665e+003,1.087002e+001
2.798629e+003,1.140077e+001
2.799594e+003,1.283290e+001
2.800558e+003,1.382284e+001
2.801522e+003,1.409063e+001
2.802486e+003,1.504703e+001
2.803450e+003,1.578385e+001
2.804415e+003,1.512078e+001
2.805379e+003,1.358028e+001
2.806343e+003,1.333924e+001
2.807307e+003,1.545074e+001
2.808271e+003,1.559657e+001
2.809236e+003,1.284800e+001
2.810200e+003,1.280648e+001
2.811164e+003,1.595077e+001
2.812128e+003,1.636435e+001
2.813093e+003,1.358069e+001
2.814057e+003,1.307878e+001
2.815021e+003,1.288157e+001
2.815985e+003,1.222405e+001
2.816950e+003,1.317995e+001
2.817914e+003,1.407385e+001
2.818878e+003,1.396143e+001
2.819842e+003,1.340834e+001
2.820807e+003,1.289787e+001
2.821771e+003,1.082552e+001
2.822735e+003,7.177143e+000
2.823699e+003,6.898777e+000
2.824664e+003,1.187067e+001
2.825628e+003,1.301726e+001
2.826592e+003,8.886518e+000
2.827556e+003,9.211843e+000
2.828521e+003,1.307882e+001
2.829485e+003,1.356909e+001
2.830449e+003,1.162408e+001
2.831413e+003,1.179249e+001
2.832377e+003,1.342454e+001
2.833342e+003,1.289241e+001
2.834306e+003,1.041194e+001
2.835270e+003,9.113495e+000
2.836234e+003,9.547482e+000
2.837198e+003,1.145926e+001
2.838163e+003,1.606650e+001
2.839127e+003,1.771184e+001
2.840091e+003,1.614161e+001
2.841055e+003,1.471472e+001
2.842020e+003,1.344640e+001
2.842984e+003,1.284924e+001
2.843948e+003,1.322610e+001
2.844912e+003,1.499092e+001
2.845877e+003,1.760828e+001
2.846841e+003,1.761519e+001
2.847805e+003,1.378556e+001
2.848769e+003,1.158047e+001
2.849734e+003,1.219179e+001
2.850698e+003,1.177860e+001
2.851662e+003,1.019000e+001
2.852626e+003,9.506935e+000
2.853591e+003,1.008060e+001
2.854555e+003,9.495712e+000
2.855519e+003,7.712843e+000
2.856483e+003,8.058527e+000
2.857448e+003,1.081255e+001
2.858412e+003,1.263995e+001
2.859376e+003,1.309652e+001
2.860340e+003,1.336390e+001
2.861304e+003,1.299091e+001
2.862269e+003,1.303846e+001
2.863233e+003,1.292258e+001
2.864197e+003,1.401253e+001
2.865161e+003,1.678535e+001
2.866125e+003,1.654257e+001
2.867090e+003,1.307360e+001
2.868054e+003,1.208352e+001
2.869018e+003,1.453988e+001
2.869982e+003,1.600455e+001
2.870947e+003,1.612769e+001
2.871911e+003,1.724168e+001
2.872875e+003,1.836570e+001
2.873839e+003,1.943871e+001
2.874804e+003,2.074061e+001
2.875768e+003,2.073894e+001
2.876732e+003,1.966014e+001
2.877696e+003,1.882977e+001
2.878661e+003,1.861232e+001
2.879625e+003,1.978638e+001
2.880589e+003,2.198120e+001
2.881553e+003,2.165589e+001
2.882518e+003,1.751443e+001
2.883482e+003,1.610395e+001
2.884446e+003,1.778784e+001
2.885410e+003,2.069453e+001
2.886375e+003,2.455314e+001
2.887339e+003,2.703432e+001
2.888303e+003,2.807057e+001
2.889267e+003,2.795644e+001
2.890231e+003,2.729472e+001
2.891196e+003,2.780673e+001
2.892160e+003,2.961415e+001
2.893124e+003,3.052877e+001
2.894088e+003,3.006975e+001
2.895052e+003,3.085977e+001
2.896017e+003,3.307900e+001
2.896981e+003,3.385977e+001
2.897945e+003,3.330437e+001
2.898909e+003,3.240562e+001
2.899874e+003,3.158145e+001
2.900838e+003,3.141734e+001
2.901802e+003,3.204120e+001
2.902766e+003,3.353764e+001
2.903731e+003,3.583402e+001
2.904695e+003,3.838457e+001
2.905659e+003,4.119086e+001
2.906623e+003,4.233165e+001
2.907588e+003,4.198392e+001
2.908552e+003,4.318358e+001
2.909516e+003,4.568659e+001
2.910480e+003,4.886639e+001
2.911445e+003,5.191911e+001
2.912409e+003,5.326751e+001
2.913373e+003,5.325398e+001
2.914337e+003,5.356689e+001
2.915302e+003,5.403105e+001
2.916266e+003,5.250451e+001
2.917230e+003,4.948409e+001
2.918194e+003,5.162127e+001
2.919158e+003,5.765068e+001
2.920123e+003,6.311261e+001
2.921087e+003,6.712728e+001
2.922051e+003,6.743176e+001
2.923015e+003,6.600676e+001
2.923979e+003,6.614550e+001
2.924944e+003,6.789437e+001
2.925908e+003,7.052753e+001
2.926872e+003,7.354937e+001
2.927836e+003,7.544219e+001
2.928801e+003,7.656930e+001
2.929765e+003,7.860706e+001
2.930729e+003,8.100249e+001
2.931693e+003,8.291003e+001
2.932658e+003,8.410371e+001
2.933622e+003,8.331891e+001
2.934586e+003,8.254400e+001
2.935550e+003,8.537592e+001
2.936515e+003,8.947848e+001
2.937479e+003,9.184032e+001
2.938443e+003,9.250114e+001
2.939407e+003,9.063293e+001
2.940372e+003,8.837068e+001
2.941336e+003,9.123749e+001
2.942300e+003,9.540520e+001
2.943264e+003,9.580254e+001
2.944229e+003,9.535909e+001
2.945193e+003,9.771972e+001
2.946157e+003,1.000732e+002
2.947121e+003,9.999388e+001
2.948085e+003,9.850190e+001
2.949050e+003,9.655132e+001
2.950014e+003,9.521647e+001
2.950978e+003,9.681487e+001
2.951942e+003,9.897395e+001
2.952906e+003,9.859105e+001
2.953871e+003,9.822696e+001
2.954835e+003,1.010229e+002
2.955799e+003,1.023970e+002
2.956763e+003,9.935527e+001
2.957728e+003,9.631631e+001
2.958692e+003,9.604227e+001
2.959656e+003,9.712018e+001
2.960620e+003,9.835789e+001
2.961585e+003,9.992654e+001
2.962549e+003,1.018944e+002
2.963513e+003,1.043875e+002
2.964477e+003,1.091833e+002
2.965442e+003,1.114306e+002
2.966406e+003,1.088360e+002
2.967370e+003,1.071647e+002
2.968334e+003,1.083729e+002
2.969299e+003,1.095148e+002
2.970263e+003,1.091655e+002
2.971227e+003,1.089358e+002
2.972191e+003,1.098873e+002
2.973156e+003,1.105348e+002
2.974120e+003,1.097227e+002
2.975084e+003,1.094032e+002
2.976048e+003,1.099743e+002
2.977012e+003,1.100264e+002
2.977977e+003,1.093881e+002
2.978941e+003,1.109535e+002
2.979905e+003,1.148689e+002
2.980869e+003,1.170974e+002
2.981833e+003,1.165791e+002
2.982798e+003,1.171351e+002
2.983762e+003,1.203791e+002
2.984726e+003,1.223998e+002
2.985690e+003,1.230208e+002
2.986655e+003,1.215881e+002
2.987619e+003,1.184554e+002
2.988583e+003,1.192967e+002
2.989547e+003,1.231738e+002
2.990512e+003,1.241477e+002
2.991476e+003,1.222266e+002
2.992440e+003,1.211369e+002
2.993404e+003,1.215119e+002
2.994369e+003,1.224253e+002
2.995333e+003,1.237607e+002
2.996297e+003,1.237654e+002
2.997261e+003,1.226882e+002
2.998226e+003,1.220308e+002
2.999190e+003,1.216051e+002
3.000154e+003,1.202913e+002
3.001118e+003,1.191537e+002
3.002083e+003,1.206138e+002
3.003047e+003,1.235072e+002
3.004011e+003,1.250703e+002
3.004975e+003,1.259030e+002
3.005939e+003,1.278370e+002
3.006904e+003,1.296272e+002
3.007868e+003,1.263716e+002
3.008832e+003,1.223111e+002
3.009796e+003,1.243608e+002
3.010760e+003,1.281530e+002
3.011725e+003,1.299325e+002
3.012689e+003,1.297128e+002
3.013653e+003,1.269901e+002
3.014617e+003,1.251456e+002
3.015582e+003,1.278076e+002
3.016546e+003,1.314792e+002
3.017510e+003,1.313335e+002
3.018474e+003,1.307126e+002
3.019439e+003,1.332060e+002
3.020403e+003,1.355851e+002
3.021367e+003,1.359882e+002
3.022331e+003,1.359307e+002
3.023296e+003,1.357894e+002
3.024260e+003,1.354642e+002
3.025224e+003,1.349748e+002
3.026188e+003,1.362011e+002
3.027153e+003,1.404694e+002
3.028117e+003,1.439793e+002
3.029081e+003,1.434613e+002
3.030045e+003,1.441014e+002
3.031010e+003,1.476784e+002
3.031974e+003,1.491120e+002
3.032938e+003,1.478080e+002
3.033902e+003,1.478452e+002
3.034866e+003,1.495796e+002
3.035831e+003,1.491038e+002
3.036795e+003,1.461062e+002
3.037759e+003,1.460197e+002
3.038723e+003,1.505812e+002
3.039688e+003,1.540307e+002
3.040652e+003,1.561890e+002
3.041616e+003,1.561987e+002
3.042580e+003,1.547495e+002
3.043544e+003,1.565437e+002
3.044509e+003,1.603116e+002
3.045473e+003,1.619588e+002
3.046437e+003,1.618548e+002
3.047401e+003,1.619334e+002
3.048366e+003,1.625786e+002
3.049330e+003,1.643625e+002
3.050294e+003,1.666214e+002
3.051258e+003,1.662315e+002
3.052223e+003,1.648317e+002
3.053187e+003,1.669811e+002
3.054151e+003,1.697688e+002
3.055115e+003,1.680838e+002
3.056080e+003,1.667414e+002
3.057044e+003,1.723996e+002
3.058008e+003,1.771226e+002
3.058972e+003,1.734027e+002
3.059937e+003,1.684473e+002
3.060901e+003,1.710303e+002
3.061865e+003,1.765752e+002
3.062829e+003,1.825611e+002
3.063793e+003,1.859443e+002
3.064758e+003,1.829384e+002
3.065722e+003,1.801579e+002
3.066686e+003,1.795200e+002
3.067650e+003,1.792463e+002
3.068615e+003,1.786669e+002
3.069579e+003,1.784128e+002
3.070543e+003,1.788346e+002
3.071507e+003,1.808165e+002
3.072471e+003,1.863433e+002
3.073436e+003,1.880043e+002
3.074400e+003,1.831028e+002
3.075364e+003,1.818338e+002
3.076328e+003,1.846355e+002
3.077293e+003,1.864897e+002
3.078257e+003,1.869413e+002
3.079221e+003,1.878176e+002
3.080185e+003,1.892218e+002
3.081150e+003,1.896602e+002
3.082114e+003,1.891011e+002
3.083078e+003,1.898212e+002
3.084042e+003,1.916879e+002
3.085007e+003,1.929758e+002
3.085971e+003,1.935641e+002
3.086935e+003,1.925156e+002
3.087899e+003,1.910048e+002
3.088864e+003,1.909070e+002
3.089828e+003,1.916269e+002
3.090792e+003,1.923172e+002
3.091756e+003,1.925742e+002
3.092720e+003,1.916484e+002
3.093685e+003,1.910203e+002
3.094649e+003,1.939683e+002
3.095613e+003,1.975666e+002
3.096577e+003,1.986695e+002
3.097542e+003,1.989354e+002
3.098506e+003,1.989443e+002
3.099470e+003,1.991808e+002
3.100434e+003,1.997960e+002
3.101398e+003,2.008395e+002
3.102363e+003,2.023187e+002
3.103327e+003,2.040607e+002
3.104291e+003,2.061483e+002
3.105255e+003,2.070672e+002
3.106220e+003,2.040415e+002
3.107184e+003,2.045424e+002
3.108148e+003,2.097556e+002
3.109112e+003,2.117847e+002
3.110077e+003,2.102439e+002
3.111041e+003,2.090926e+002
3.112005e+003,2.092135e+002
3.112969e+003,2.106566e+002
3.113934e+003,2.129713e+002
3.114898e+003,2.133508e+002
3.115862e+003,2.119715e+002
3.116826e+003,2.119374e+002
3.117791e+003,2.128963e+002
3.118755e+003,2.130236e+002
3.119719e+003,2.129767e+002
3.120683e+003,2.143430e+002
3.121647e+003,2.160733e+002
3.122612e+003,2.160925e+002
3.123576e+003,2.161922e+002
3.124540e+003,2.184294e+002
3.125504e+003,2.208623e+002
3.126469e+003,2.203981e+002
3.127433e+003,2.194045e+002
3.128397e+003,2.208879e+002
3.129361e+003,2.226647e+002
3.130325e+003,2.230149e+002
3.131290e+003,2.242497e+002
3.132254e+003,2.273414e+002
3.133218e+003,2.285047e+002
3.134182e+003,2.265714e+002
3.135147e+003,2.265314e+002
3.136111e+003,2.307882e+002
3.137075e+003,2.345894e+002
3.138039e+003,2.362095e+002
3.139004e+003,2.364401e+002
3.139968e+003,2.351911e+002
3.140932e+003,2.339132e+002
3.141896e+003,2.331204e+002
3.142861e+003,2.355904e+002
3.143825e+003,2.397702e+002
3.144789e+003,2.405135e+002
3.145753e+003,2.383321e+002
3.146718e+003,2.373314e+002
3.147682e+003,2.375577e+002
3.148646e+003,2.393428e+002
3.149610e+003,2.417193e+002
3.150574e+003,2.417478e+002
3.151539e+003,2.410033e+002
3.152503e+003,2.403143e+002
3.153467e+003,2.414524e+002
3.154431e+003,2.468971e+002
3.155396e+003,2.513202e+002
3.156360e+003,2.511321e+002
3.157324e+003,2.491227e+002
3.158288e+003,2.472893e+002
3.159252e+003,2.470985e+002
3.160217e+003,2.516189e+002
3.161181e+003,2.543405e+002
3.162145e+003,2.533073e+002
3.163109e+003,2.525813e+002
3.164074e+003,2.526720e+002
3.165038e+003,2.512173e+002
3.166002e+003,2.486555e+002
3.166966e+003,2.502182e+002
3.167931e+003,2.563492e+002
3.168895e+003,2.581871e+002
3.169859e+003,2.553367e+002
3.170823e+003,2.571409e+002
3.171788e+003,2.621435e+002
3.172752e+003,2.607377e+002
3.173716e+003,2.567502e+002
3.174680e+003,2.575782e+002
3.175645e+003,2.612032e+002
3.176609e+003,2.654162e+002
3.177573e+003,2.680356e+002
3.178537e+003,2.666786e+002
3.179501e+003,2.643436e+002
3.180466e+003,2.648829e+002
3.181430e+003,2.669068e+002
3.182394e+003,2.708968e+002
3.183358e+003,2.728165e+002
3.184323e+003,2.696654e+002
3.185287e+003,2.675305e+002
3.186251e+003,2.678020e+002
3.187215e+003,2.675072e+002
3.188179e+003,2.660159e+002
3.189144e+003,2.672004e+002
3.190108e+003,2.725315e+002
3.191072e+003,2.747799e+002
3.192036e+003,2.724709e+002
3.193001e+003,2.704217e+002
3.193965e+003,2.687834e+002
3.194929e+003,2.681967e+002
3.195893e+003,2.692953e+002
3.196858e+003,2.754442e+002
3.197822e+003,2.826534e+002
3.198786e+003,2.829712e+002
3.199750e+003,2.796875e+002
3.200715e+003,2.770605e+002
3.201679e+003,2.758833e+002
3.202643e+003,2.793937e+002
3.203607e+003,2.826772e+002
3.204572e+003,2.793074e+002
3.205536e+003,2.763088e+002
3.206500e+003,2.771900e+002
3.207464e+003,2.782128e+002
3.208428e+003,2.782022e+002
3.209393e+003,2.800127e+002
3.210357e+003,2.845155e+002
3.211321e+003,2.865201e+002
3.212285e+003,2.832253e+002
3.213250e+003,2.810115e+002
3.214214e+003,2.802397e+002
3.215178e+003,2.824257e+002
3.216142e+003,2.868014e+002
3.217106e+003,2.901324e+002
3.218071e+003,2.920292e+002
3.219035e+003,2.919788e+002
3.219999e+003,2.910561e+002
3.220963e+003,2.917791e+002
3.221928e+003,2.922436e+002
3.222892e+003,2.882267e+002
3.223856e+003,2.831145e+002
3.224820e+003,2.823748e+002
3.225785e+003,2.836228e+002
3.226749e+003,2.855930e+002
3.227713e+003,2.881672e+002
3.228677e+003,2.915748e+002
3.229642e+003,2.935073e+002
3.230606e+003,2.932658e+002
3.231570e+003,2.942106e+002
3.232534e+003,2.979157e+002
3.233499e+003,2.997927e+002
3.234463e+003,2.970341e+002
3.235427e+003,2.980695e+002
3.236391e+003,3.026237e+002
3.237355e+003,3.027618e+002
3.238320e+003,2.999852e+002
3.239284e+003,3.001458e+002
3.240248e+003,3.018546e+002
3.241212e+003,2.996088e+002
3.242177e+003,2.971806e+002
3.243141e+003,3.010742e+002
3.244105e+003,3.068753e+002
3.245069e+003,3.053044e+002
3.246033e+003,3.025459e+002
3.246998e+003,3.058992e+002
3.247962e+003,3.088143e+002
3.248926e+003,3.081102e+002
3.249890e+003,3.072487e+002
3.250855e+003,3.072966e+002
3.251819e+003,3.083738e+002
3.252783e+003,3.103316e+002
3.253747e+003,3.110769e+002
3.254712e+003,3.094290e+002
3.255676e+003,3.106268e+002
3.256640e+003,3.150007e+002
3.257604e+003,3.173219e+002
3.258569e+003,3.183779e+002
3.259533e+003,3.217952e+002
3.260497e+003,3.256049e+002
3.261461e+003,3.253547e+002
3.262426e+003,3.233182e+002
3.263390e+003,3.226038e+002
3.264354e+003,3.228163e+002
3.265318e+003,3.235240e+002
3.266282e+003,3.244981e+002
3.267247e+003,3.259417e+002
3.268211e+003,3.267381e+002
3.269175e+003,3.256147e+002
3.270139e+003,3.263477e+002
3.271104e+003,3.296368e+002
3.272068e+003,3.324575e+002
3.273032e+003,3.341313e+002
3.273996e+003,3.369099e+002
3.274960e+003,3.412027e+002
3.275925e+003,3.417901e+002
3.276889e+003,3.386996e+002
3.277853e+003,3.389784e+002
3.278817e+003,3.411132e+002
3.279782e+003,3.408916e+002
3.280746e+003,3.396253e+002
3.281710e+003,3.388184e+002
3.282674e+003,3.391216e+002
3.283639e+003,3.410500e+002
3.284603e+003,3.433597e+002
3.285567e+003,3.448440e+002
3.286531e+003,3.464644e+002
3.287496e+003,3.508643e+002
3.288460e+003,3.520076e+002
3.289424e+003,3.472992e+002
3.290388e+003,3.435157e+002
3.291353e+003,3.416233e+002
3.292317e+003,3.433145e+002
3.293281e+003,3.476632e+002
3.294245e+003,3.506980e+002
3.295209e+003,3.518175e+002
3.296174e+003,3.527838e+002
3.297138e+003,3.535710e+002
3.298102e+003,3.539143e+002
3.299066e+003,3.538573e+002
3.300031e+003,3.526271e+002
3.300995e+003,3.520748e+002
3.301959e+003,3.552732e+002
3.302923e+003,3.574998e+002
3.303887e+003,3.566060e+002
3.304852e+003,3.556190e+002
3.305816e+003,3.563030e+002
3.306780e+003,3.579338e+002
3.307744e+003,3.608042e+002
3.308709e+003,3.619612e+002
3.309673e+003,3.610945e+002
3.310637e+003,3.594444e+002
3.311601e+003,3.578976e+002
3.312566e+003,3.608656e+002
3.313530e+003,3.658120e+002
3.314494e+003,3.660894e+002
3.315458e+003,3.634578e+002
3.316423e+003,3.612823e+002
3.317387e+003,3.608227e+002
3.318351e+003,3.660232e+002
3.319315e+003,3.712012e+002
3.320280e+003,3.692866e+002
3.321244e+003,3.674065e+002
3.322208e+003,3.682024e+002
3.323172e+003,3.691922e+002
3.324136e+003,3.697350e+002
3.325101e+003,3.701393e+002
3.326065e+003,3.705900e+002
3.327029e+003,3.714818e+002
3.327993e+003,3.729340e+002
3.328958e+003,3.754107e+002
3.329922e+003,3.784319e+002
3.330886e+003,3.777376e+002
3.331850e+003,3.755156e+002
3.332814e+003,3.755099e+002
3.333779e+003,3.763392e+002
3.334743e+003,3.761517e+002
3.335707e+003,3.768837e+002
3.336671e+003,3.800749e+002
3.337636e+003,3.822516e+002
3.338600e+003,3.796137e+002
3.339564e+003,3.790346e+002
3.340528e+003,3.859996e+002
3.341493e+003,3.889179e+002
3.342457e+003,3.875362e+002
3.343421e+003,3.881572e+002
3.344385e+003,3.906919e+002
3.345350e+003,3.919641e+002
3.346314e+003,3.922223e+002
3.347278e+003,3.935273e+002
3.348242e+003,3.955710e+002
3.349207e+003,3.982632e+002
3.350171e+003,3.999021e+002
3.351135e+003,3.957998e+002
3.352099e+003,3.923784e+002
3.353063e+003,3.941593e+002
3.354028e+003,3.979564e+002
3.354992e+003,4.030072e+002
3.355956e+003,4.058582e+002
3.356920e+003,4.056591e+002
3.357885e+003,4.060215e+002
3.358849e+003,4.081359e+002
3.359813e+003,4.085229e+002
3.360777e+003,4.071780e+002
3.361741e+003,4.049997e+002
3.362706e+003,4.033326e+002
3.363670e+003,4.063490e+002
3.364634e+003,4.101218e+002
3.365598e+003,4.091872e+002
3.366563e+003,4.087267e+002
3.367527e+003,4.125123e+002
3.368491e+003,4.156791e+002
3.369455e+003,4.137906e+002
3.370420e+003,4.119936e+002
3.371384e+003,4.132948e+002
3.372348e+003,4.139176e+002
3.373312e+003,4.137943e+002
3.374277e+003,4.152039e+002
3.375241e+003,4.176788e+002
3.376205e+003,4.187034e+002
3.377169e+003,4.191369e+002
3.378134e+003,4.221803e+002
3.379098e+003,4.257575e+002
3.380062e+003,4.256909e+002
3.381026e+003,4.241336e+002
3.381990e+003,4.233207e+002
3.382955e+003,4.235388e+002
3.383919e+003,4.260105e+002
3.384883e+003,4.260269e+002
3.385847e+003,4.227821e+002
3.386812e+003,4.205593e+002
3.387776e+003,4.207791e+002
3.388740e+003,4.236093e+002
3.389704e+003,4.288302e+002
3.390668e+003,4.320653e+002
3.391633e+003,4.335099e+002
3.392597e+003,4.344633e+002
3.393561e+003,4.344793e+002
3.394525e+003,4.310992e+002
3.395490e+003,4.292386e+002
3.396454e+003,4.328316e+002
3.397418e+003,4.358506e+002
3.398382e+003,4.349533e+002
3.399347e+003,4.342830e+002
3.400311e+003,4.364968e+002
3.401275e+003,4.381529e+002
3.402239e+003,4.386254e+002
3.403204e+003,4.379289e+002
3.404168e+003,4.364801e+002
3.405132e+003,4.357933e+002
3.406096e+003,4.360641e+002
3.407061e+003,4.381602e+002
3.408025e+003,4.401428e+002
3.408989e+003,4.397487e+002
3.409953e+003,4.388004e+002
3.410917e+003,4.396776e+002
3.411882e+003,4.404607e+002
3.412846e+003,4.389079e+002
3.413810e+003,4.387324e+002
3.414774e+003,4.404271e+002
3.415739e+003,4.438774e+002
3.416703e+003,4.480160e+002
3.417667e+003,4.489130e+002
3.418631e+003,4.465742e+002
3.419595e+003,4.431953e+002
3.420560e+003,4.405442e+002
3.421524e+003,4.440668e+002
3.422488e+003,4.494801e+002
3.423452e+003,4.502311e+002
3.424417e+003,4.489508e+002
3.425381e+003,4.455888e+002
3.426345e+003,4.462514e+002
3.427309e+003,4.521720e+002
3.428274e+003,4.545789e+002
3.429238e+003,4.510793e+002
3.430202e+003,4.484213e+002
3.431166e+003,4.481407e+002
3.432131e+003,4.504168e+002
3.433095e+003,4.542749e+002
3.434059e+003,4.549207e+002
3.435023e+003,4.548339e+002
3.435988e+003,4.584624e+002
3.436952e+003,4.613772e+002
3.437916e+003,4.607477e+002
3.438880e+003,4.593488e+002
3.439844e+003,4.588311e+002
3.440809e+003,4.587437e+002
3.441773e+003,4.591958e+002
3.442737e+003,4.580851e+002
3.443701e+003,4.553038e+002
3.444666e+003,4.561747e+002
3.445630e+003,4.594909e+002
3.446594e+003,4.616800e+002
3.447558e+003,4.636128e+002
3.448522e+003,4.677952e+002
3.449487e+003,4.703516e+002
3.450451e+003,4.670024e+002
3.451415e+003,4.641549e+002
3.452379e+003,4.696113e+002
3.453344e+003,4.736217e+002
3.454308e+003,4.733353e+002
3.455272e+003,4.727590e+002
3.456236e+003,4.725483e+002
3.457201e+003,4.744424e+002
3.458165e+003,4.776857e+002
3.459129e+003,4.797426e+002
3.460093e+003,4.808774e+002
3.461058e+003,4.818325e+002
3.462022e+003,4.826928e+002
3.462986e+003,4.840135e+002
3.463950e+003,4.846331e+002
3.464915e+003,4.819064e+002
3.465879e+003,4.830146e+002
3.466843e+003,4.888491e+002
3.467807e+003,4.911213e+002
3.468771e+003,4.890040e+002
3.469736e+003,4.881733e+002
3.470700e+003,4.892435e+002
3.471664e+003,4.888269e+002
3.472628e+003,4.879492e+002
3.473593e+003,4.894901e+002
3.474557e+003,4.928184e+002
3.475521e+003,4.987574e+002
3.476485e+003,5.039508e+002
3.477449e+003,5.074731e+002
3.478414e+003,5.057666e+002
3.479378e+003,4.987985e+002
3.480342e+003,4.969126e+002
3.481306e+003,5.034800e+002
3.482271e+003,5.065222e+002
3.483235e+003,5.061777e+002
3.484199e+003,5.077473e+002
3.485163e+003,5.099210e+002
3.486128e+003,5.111900e+002
3.487092e+003,5.106002e+002
3.488056e+003,5.069363e+002
3.489020e+003,5.065509e+002
3.489985e+003,5.125908e+002
3.490949e+003,5.183057e+002
3.491913e+003,5.202253e+002
3.492877e+003,5.209936e+002
3.493842e+003,5.209291e+002
3.494806e+003,5.218362e+002
3.495770e+003,5.231815e+002
3.496734e+003,5.238972e+002
3.497698e+003,5.236613e+002
3.498663e+003,5.217003e+002
3.499627e+003,5.209300e+002
3.500591e+003,0.000000e+000
