9.974011e+001,5.867010e+002
1.007043e+002,5.930811e+002
1.016686e+002,5.979089e+002
1.026328e+002,6.002501e+002
1.035970e+002,6.007034e+002
1.045613e+002,5.995581e+002
1.055255e+002,5.970891e+002
1.064897e+002,5.936604e+002
1.074540e+002,5.881274e+002
1.084182e+002,5.825031e+002
1.093824e+002,5.754507e+002
1.103467e+002,5.674873e+002
1.113109e+002,5.616113e+002
1.122751e+002,5.647230e+002
1.132394e+002,5.696364e+002
1.142036e+002,5.728986e+002
1.151678e+002,5.725172e+002
1.161321e+002,5.695184e+002
1.170963e+002,5.672443e+002
1.180605e+002,5.652108e+002
1.190248e+002,5.631466e+002
1.199890e+002,5.609108e+002
1.209532e+002,5.592122e+002
1.219175e+002,5.575602e+002
1.228817e+002,5.559286e+002
1.238459e+002,5.542267e+002
1.248102e+002,5.523135e+002
1.257744e+002,5.495730e+002
1.267386e+002,5.469733e+002
1.277029e+002,5.440001e+002
1.286671e+002,5.407372e+002
1.296313e+002,5.379750e+002
1.305956e+002,5.379144e+002
1.315598e+002,5.378574e+002
1.325240e+002,5.365883e+002
1.334883e+002,5.337351e+002
1.344525e+002,5.305569e+002
1.354167e+002,5.296179e+002
1.363810e+002,5.298284e+002
1.373452e+002,5.301499e+002
1.383094e+002,5.297150e+002
1.392737e+002,5.284598e+002
1.402379e+002,5.263207e+002
1.412021e+002,5.225562e+002
1.421664e+002,5.182913e+002
1.431306e+002,5.153020e+002
1.440948e+002,5.151378e+002
1.450591e+002,5.151741e+002
1.460233e+002,5.147546e+002
1.469875e+002,5.139971e+002
1.479518e+002,5.135181e+002
1.489160e+002,5.148890e+002
1.498802e+002,5.154475e+002
1.508445e+002,5.141553e+002
1.518087e+002,5.111241e+002
1.527729e+002,5.078008e+002
1.537372e+002,5.063595e+002
1.547014e+002,5.055474e+002
1.556656e+002,5.051006e+002
1.566299e+002,5.049740e+002
1.575941e+002,5.055748e+002
1.585583e+002,5.035685e+002
1.595226e+002,4.977954e+002
1.604868e+002,4.917287e+002
1.614510e+002,4.888886e+002
1.624153e+002,4.915921e+002
1.633795e+002,4.924538e+002
1.643438e+002,4.904334e+002
1.653080e+002,4.871076e+002
1.662722e+002,4.846678e+002
1.672365e+002,4.851527e+002
1.682007e+002,4.856511e+002
1.691649e+002,4.849745e+002
1.701292e+002,4.833077e+002
1.710934e+002,4.813874e+002
1.720576e+002,4.800679e+002
1.730219e+002,4.792358e+002
1.739861e+002,4.792437e+002
1.749503e+002,4.800293e+002
1.759146e+002,4.811819e+002
1.768788e+002,4.799614e+002
1.778430e+002,4.773816e+002
1.788073e+002,4.744689e+002
1.797715e+002,4.711866e+002
1.807357e+002,4.665407e+002
1.817000e+002,4.653185e+002
1.826642e+002,4.691059e+002
1.836284e+002,4.734713e+002
1.845927e+002,4.749474e+002
1.855569e+002,4.709155e+002
1.865211e+002,4.653498e+002
1.874854e+002,4.612464e+002
1.884496e+002,4.585476e+002
1.894138e+002,4.569362e+002
1.903781e+002,4.559219e+002
1.913423e+002,4.556703e+002
1.923065e+002,4.560157e+002
1.932708e+002,4.566286e+002
1.942350e+002,4.571315e+002
1.951992e+002,4.570057e+002
1.961635e+002,4.568307e+002
1.971277e+002,4.560903e+002
1.980919e+002,4.541903e+002
1.990562e+002,4.512177e+002
2.000204e+002,4.496006e+002
2.009846e+002,4.509592e+002
2.019489e+002,4.521484e+002
2.029131e+002,4.519254e+002
2.038773e+002,4.499423e+002
2.048416e+002,4.481158e+002
2.058058e+002,4.484082e+002
2.067700e+002,4.492997e+002
2.077343e+002,4.496464e+002
2.086985e+002,4.486202e+002
2.096627e+002,4.467226e+002
2.106270e+002,4.461932e+002
2.115912e+002,4.468031e+002
2.125554e+002,4.476665e+002
2.135197e+002,4.477460e+002
2.144839e+002,4.464684e+002
2.154481e+002,4.448611e+002
2.164124e+002,4.432748e+002
2.173766e+002,4.416852e+002
2.183408e+002,4.398612e+002
2.193051e+002,4.367604e+002
2.202693e+002,4.345843e+002
2.212335e+002,4.340372e+002
2.221978e+002,4.345411e+002
2.231620e+002,4.349602e+002
2.241262e+002,4.342005e+002
2.250904e+002,4.337696e+002
2.260547e+002,4.345444e+002
2.270189e+002,4.362717e+002
2.279831e+002,4.380203e+002
2.289474e+002,4.374786e+002
2.299116e+002,4.354607e+002
2.308758e+002,4.337997e+002
2.318401e+002,4.332783e+002
2.328043e+002,4.340616e+002
2.337685e+002,4.347251e+002
2.347328e+002,4.340952e+002
2.356970e+002,4.331629e+002
2.366612e+002,4.325401e+002
2.376255e+002,4.326145e+002
2.385897e+002,4.327947e+002
2.395539e+002,4.332673e+002
2.405182e+002,4.335892e+002
2.414824e+002,4.334166e+002
2.424466e+002,4.325112e+002
2.434109e+002,4.312869e+002
2.443751e+002,4.297861e+002
2.453393e+002,4.281869e+002
2.463036e+002,4.268740e+002
2.472678e+002,4.263216e+002
2.482320e+002,4.269398e+002
2.491963e+002,4.283654e+002
2.501605e+002,4.307020e+002
2.511247e+002,4.330911e+002
2.520890e+002,4.341888e+002
2.530532e+002,4.325503e+002
2.540174e+002,4.313526e+002
2.549817e+002,4.310278e+002
2.559459e+002,4.315231e+002
2.569102e+002,4.325469e+002
2.578744e+002,4.339421e+002
2.588386e+002,4.343211e+002
2.598029e+002,4.334179e+002
2.607671e+002,4.317965e+002
2.617313e+002,4.304356e+002
2.626956e+002,4.308193e+002
2.636598e+002,4.322221e+002
2.646240e+002,4.332566e+002
2.655883e+002,4.334688e+002
2.665525e+002,4.329436e+002
2.675167e+002,4.331727e+002
2.684810e+002,4.349925e+002
2.694452e+002,4.364175e+002
2.704094e+002,4.365697e+002
2.713737e+002,4.353686e+002
2.723379e+002,4.349525e+002
2.733021e+002,4.356532e+002
2.742664e+002,4.362397e+002
2.752306e+002,4.366618e+002
2.761948e+002,4.369605e+002
2.771591e+002,4.366386e+002
2.781233e+002,4.344170e+002
2.790875e+002,4.323924e+002
2.800518e+002,4.319353e+002
2.810160e+002,4.336870e+002
2.819802e+002,4.368179e+002
2.829445e+002,4.394618e+002
2.839087e+002,4.416404e+002
2.848729e+002,4.428161e+002
2.858372e+002,4.424940e+002
2.868014e+002,4.402583e+002
2.877656e+002,4.389783e+002
2.887299e+002,4.382039e+002
2.896941e+002,4.377500e+002
2.906583e+002,4.377818e+002
2.916226e+002,4.390443e+002
2.925868e+002,4.400457e+002
2.935510e+002,4.401484e+002
2.945153e+002,4.400297e+002
2.954795e+002,4.402107e+002
2.964437e+002,4.409501e+002
2.974080e+002,4.416798e+002
2.983722e+002,4.426051e+002
2.993364e+002,4.436107e+002
3.003007e+002,4.442263e+002
3.012649e+002,4.437384e+002
3.022291e+002,4.419494e+002
3.031934e+002,4.408992e+002
3.041576e+002,4.407729e+002
3.051218e+002,4.413180e+002
3.060861e+002,4.420190e+002
3.070503e+002,4.424864e+002
3.080145e+002,4.425185e+002
3.089788e+002,4.427936e+002
3.099430e+002,4.431652e+002
3.109072e+002,4.431052e+002
3.118715e+002,4.415141e+002
3.128357e+002,4.410252e+002
3.137999e+002,4.424558e+002
3.147642e+002,4.448678e+002
3.157284e+002,4.468739e+002
3.166926e+002,4.471355e+002
3.176569e+002,4.469899e+002
3.186211e+002,4.477447e+002
3.195853e+002,4.493839e+002
3.205496e+002,4.515096e+002
3.215138e+002,4.533556e+002
3.224780e+002,4.548662e+002
3.234423e+002,4.551579e+002
3.244065e+002,4.536081e+002
3.253707e+002,4.507375e+002
3.263350e+002,4.484452e+002
3.272992e+002,4.475705e+002
3.282634e+002,4.473129e+002
3.292277e+002,4.475073e+002
3.301919e+002,4.480847e+002
3.311561e+002,4.490542e+002
3.321204e+002,4.507428e+002
3.330846e+002,4.522717e+002
3.340488e+002,4.533648e+002
3.350131e+002,4.538898e+002
3.359773e+002,4.537759e+002
3.369415e+002,4.526092e+002
3.379058e+002,4.509226e+002
3.388700e+002,4.500285e+002
3.398342e+002,4.503613e+002
3.407985e+002,4.517576e+002
3.417627e+002,4.529777e+002
3.427269e+002,4.528263e+002
3.436912e+002,4.528674e+002
3.446554e+002,4.538072e+002
3.456196e+002,4.556722e+002
3.465839e+002,4.574953e+002
3.475481e+002,4.592847e+002
3.485123e+002,4.607704e+002
3.494765e+002,4.611635e+002
3.504408e+002,4.604399e+002
3.514050e+002,4.593982e+002
3.523692e+002,4.601146e+002
3.533335e+002,4.614951e+002
3.542977e+002,4.622643e+002
3.552619e+002,4.621595e+002
3.562262e+002,4.615927e+002
3.571904e+002,4.618437e+002
3.581546e+002,4.625393e+002
3.591189e+002,4.636744e+002
3.600831e+002,4.655693e+002
3.610473e+002,4.680840e+002
3.620116e+002,4.694639e+002
3.629758e+002,4.696847e+002
3.639400e+002,4.693476e+002
3.649043e+002,4.683841e+002
3.658685e+002,4.668436e+002
3.668327e+002,4.650051e+002
3.677970e+002,4.618807e+002
3.687612e+002,4.596654e+002
3.697254e+002,4.601748e+002
3.706897e+002,4.633951e+002
3.716539e+002,4.676168e+002
3.726181e+002,4.684177e+002
3.735824e+002,4.663977e+002
3.745466e+002,4.642817e+002
3.755108e+002,4.629828e+002
3.764751e+002,4.626429e+002
3.774393e+002,4.628622e+002
3.784035e+002,4.639479e+002
3.793678e+002,4.647425e+002
3.803320e+002,4.650663e+002
3.812962e+002,4.650773e+002
3.822605e+002,4.652611e+002
3.832247e+002,4.658424e+002
3.841889e+002,4.664004e+002
3.851532e+002,4.668854e+002
3.861174e+002,4.671575e+002
3.870816e+002,4.669680e+002
3.880459e+002,4.653020e+002
3.890101e+002,4.633806e+002
3.899743e+002,4.629839e+002
3.909386e+002,4.644868e+002
3.919028e+002,4.671564e+002
3.928670e+002,4.681419e+002
3.938313e+002,4.661905e+002
3.947955e+002,4.648773e+002
3.957597e+002,4.655093e+002
3.967240e+002,4.676911e+002
3.976882e+002,4.689525e+002
3.986524e+002,4.671748e+002
3.996167e+002,4.668488e+002
4.005809e+002,4.695811e+002
4.015451e+002,4.740861e+002
4.025094e+002,4.771724e+002
4.034736e+002,4.757747e+002
4.044378e+002,4.734561e+002
4.054021e+002,4.718040e+002
4.063663e+002,4.709324e+002
4.073305e+002,4.706121e+002
4.082948e+002,4.708229e+002
4.092590e+002,4.714096e+002
4.102232e+002,4.709042e+002
4.111875e+002,4.687408e+002
4.121517e+002,4.658607e+002
4.131159e+002,4.646854e+002
4.140802e+002,4.680229e+002
4.150444e+002,4.712729e+002
4.160086e+002,4.742750e+002
4.169729e+002,4.768103e+002
4.179371e+002,4.783836e+002
4.189013e+002,4.771600e+002
4.198656e+002,4.755468e+002
4.208298e+002,4.757379e+002
4.217940e+002,4.768820e+002
4.227583e+002,4.776950e+002
4.237225e+002,4.770275e+002
4.246867e+002,4.758071e+002
4.256510e+002,4.746418e+002
4.266152e+002,4.733436e+002
4.275794e+002,4.726110e+002
4.285437e+002,4.735695e+002
4.295079e+002,4.772243e+002
4.304721e+002,4.793012e+002
4.314364e+002,4.796362e+002
4.324006e+002,4.793803e+002
4.333648e+002,4.792097e+002
4.343291e+002,4.783869e+002
4.352933e+002,4.783020e+002
4.362575e+002,4.799895e+002
4.372218e+002,4.822237e+002
4.381860e+002,4.842447e+002
4.391502e+002,4.857176e+002
4.401145e+002,4.863119e+002
4.410787e+002,4.855006e+002
4.420429e+002,4.842746e+002
4.430072e+002,4.834819e+002
4.439714e+002,4.835264e+002
4.449356e+002,4.839909e+002
4.458999e+002,4.840796e+002
4.468641e+002,4.840786e+002
4.478283e+002,4.839651e+002
4.487926e+002,4.838666e+002
4.497568e+002,4.840285e+002
4.507210e+002,4.848662e+002
4.516853e+002,4.852742e+002
4.526495e+002,4.856951e+002
4.536137e+002,4.868820e+002
4.545780e+002,4.889443e+002
4.555422e+002,4.906042e+002
4.565064e+002,4.907036e+002
4.574707e+002,4.905113e+002
4.584349e+002,4.900807e+002
4.593991e+002,4.893942e+002
4.603634e+002,4.885194e+002
4.613276e+002,4.883101e+002
4.622918e+002,4.888427e+002
4.632561e+002,4.887379e+002
4.642203e+002,4.876153e+002
4.651845e+002,4.857939e+002
4.661488e+002,4.843417e+002
4.671130e+002,4.828329e+002
4.680772e+002,4.815751e+002
4.690415e+002,4.811128e+002
4.700057e+002,4.812702e+002
4.709699e+002,4.815356e+002
4.719342e+002,4.817714e+002
4.728984e+002,4.815037e+002
4.738626e+002,4.802090e+002
4.748269e+002,4.782989e+002
4.757911e+002,4.764027e+002
4.767553e+002,4.751591e+002
4.777196e+002,4.748888e+002
4.786838e+002,4.753836e+002
4.796480e+002,4.761430e+002
4.806123e+002,4.764448e+002
4.815765e+002,4.758034e+002
4.825407e+002,4.746481e+002
4.835050e+002,4.727000e+002
4.844692e+002,4.683825e+002
4.854334e+002,4.648530e+002
4.863977e+002,4.646165e+002
4.873619e+002,4.683097e+002
4.883261e+002,4.698995e+002
4.892904e+002,4.673154e+002
4.902546e+002,4.643360e+002
4.912188e+002,4.627100e+002
4.921831e+002,4.627823e+002
4.931473e+002,4.632656e+002
4.941115e+002,4.618161e+002
4.950758e+002,4.599832e+002
4.960400e+002,4.600852e+002
4.970042e+002,4.629467e+002
4.979685e+002,4.674489e+002
4.989327e+002,4.683117e+002
4.998969e+002,4.624848e+002
5.008612e+002,4.582458e+002
5.018254e+002,4.579121e+002
5.027896e+002,4.601223e+002
5.037539e+002,4.606754e+002
5.047181e+002,4.580553e+002
5.056823e+002,4.560713e+002
5.066466e+002,4.553906e+002
5.076108e+002,4.557555e+002
5.085750e+002,4.566201e+002
5.095393e+002,4.575056e+002
5.105035e+002,4.580475e+002
5.114677e+002,4.585301e+002
5.124320e+002,4.593103e+002
5.133962e+002,4.606246e+002
5.143605e+002,4.625124e+002
5.153247e+002,4.646089e+002
5.162889e+002,4.658592e+002
5.172532e+002,4.663352e+002
5.182174e+002,4.670976e+002
5.191816e+002,4.687536e+002
5.201459e+002,4.712166e+002
5.211101e+002,4.740946e+002
5.220743e+002,4.774513e+002
5.230386e+002,4.805528e+002
5.240028e+002,4.834879e+002
5.249670e+002,4.866595e+002
5.259313e+002,4.906230e+002
5.268955e+002,4.947438e+002
5.278597e+002,4.987844e+002
5.288240e+002,5.030761e+002
5.297882e+002,5.077565e+002
5.307524e+002,5.128671e+002
5.317167e+002,5.186134e+002
5.326809e+002,5.257627e+002
5.336451e+002,5.325952e+002
5.346094e+002,5.381062e+002
5.355736e+002,5.422607e+002
5.365378e+002,5.456718e+002
5.375021e+002,5.487889e+002
5.384663e+002,5.526029e+002
5.394305e+002,5.577712e+002
5.403948e+002,5.629990e+002
5.413590e+002,5.665359e+002
5.423232e+002,5.669623e+002
5.432875e+002,5.672563e+002
5.442517e+002,5.721914e+002
5.452159e+002,5.790116e+002
5.461802e+002,5.841387e+002
5.471444e+002,5.853745e+002
5.481086e+002,5.834258e+002
5.490729e+002,5.835518e+002
5.500371e+002,5.863479e+002
5.510013e+002,5.888612e+002
5.519656e+002,5.895552e+002
5.529298e+002,5.887911e+002
5.538940e+002,5.897881e+002
5.548583e+002,5.938098e+002
5.558225e+002,5.962910e+002
5.567867e+002,5.970670e+002
5.577510e+002,5.964121e+002
5.587152e+002,5.947421e+002
5.596794e+002,5.921914e+002
5.606437e+002,5.895599e+002
5.616079e+002,5.863214e+002
5.625721e+002,5.829771e+002
5.635364e+002,5.802563e+002
5.645006e+002,5.787649e+002
5.654648e+002,5.780371e+002
5.664291e+002,5.778402e+002
5.673933e+002,5.791769e+002
5.683575e+002,5.794585e+002
5.693218e+002,5.754039e+002
5.702860e+002,5.652723e+002
5.712502e+002,5.582050e+002
5.722145e+002,5.566238e+002
5.731787e+002,5.554004e+002
5.741429e+002,5.542797e+002
5.751072e+002,5.532411e+002
5.760714e+002,5.513986e+002
5.770356e+002,5.469581e+002
5.779999e+002,5.427443e+002
5.789641e+002,5.397458e+002
5.799283e+002,5.374342e+002
5.808926e+002,5.347721e+002
5.818568e+002,5.307213e+002
5.828210e+002,5.256113e+002
5.837853e+002,5.221011e+002
5.847495e+002,5.205297e+002
5.857137e+002,5.194641e+002
5.866780e+002,5.173715e+002
5.876422e+002,5.138654e+002
5.886064e+002,5.105695e+002
5.895707e+002,5.079232e+002
5.905349e+002,5.052391e+002
5.914991e+002,5.016108e+002
5.924634e+002,4.968997e+002
5.934276e+002,4.926348e+002
5.943918e+002,4.909729e+002
5.953560e+002,4.898709e+002
5.963203e+002,4.885101e+002
5.972845e+002,4.864837e+002
5.982487e+002,4.836058e+002
5.992130e+002,4.797854e+002
6.001772e+002,4.758339e+002
6.011414e+002,4.725568e+002
6.021057e+002,4.690816e+002
6.030699e+002,4.653893e+002
6.040341e+002,4.622001e+002
6.049984e+002,4.608529e+002
6.059626e+002,4.577563e+002
6.069268e+002,4.532578e+002
6.078911e+002,4.487403e+002
6.088553e+002,4.440363e+002
6.098195e+002,4.387387e+002
6.107838e+002,4.339734e+002
6.117480e+002,4.323216e+002
6.127122e+002,4.313109e+002
6.136765e+002,4.293163e+002
6.146407e+002,4.259790e+002
6.156049e+002,4.219134e+002
6.165692e+002,4.184019e+002
6.175334e+002,4.153911e+002
6.184976e+002,4.109505e+002
6.194619e+002,4.048722e+002
6.204261e+002,3.990878e+002
6.213903e+002,3.963231e+002
6.223546e+002,3.984255e+002
6.233188e+002,3.973849e+002
6.242830e+002,3.908698e+002
6.252473e+002,3.839475e+002
6.262115e+002,3.800768e+002
6.271757e+002,3.797754e+002
6.281400e+002,3.793925e+002
6.291042e+002,3.758651e+002
6.300684e+002,3.715935e+002
6.310327e+002,3.673391e+002
6.319969e+002,3.634719e+002
6.329611e+002,3.601869e+002
6.339254e+002,3.576782e+002
6.348896e+002,3.556590e+002
6.358538e+002,3.538421e+002
6.368181e+002,3.527273e+002
6.377823e+002,3.514992e+002
6.387465e+002,3.489750e+002
6.397108e+002,3.444992e+002
6.406750e+002,3.411649e+002
6.416392e+002,3.393741e+002
6.426035e+002,3.372281e+002
6.435677e+002,3.338530e+002
6.445319e+002,3.293933e+002
6.454962e+002,3.249595e+002
6.464604e+002,3.211964e+002
6.474246e+002,3.180717e+002
6.483889e+002,3.155172e+002
6.493531e+002,3.132095e+002
6.503173e+002,3.107290e+002
6.512816e+002,3.077476e+002
6.522458e+002,3.045297e+002
6.532100e+002,3.023625e+002
6.541743e+002,3.019034e+002
6.551385e+002,3.014076e+002
6.561027e+002,2.988382e+002
6.570670e+002,2.933987e+002
6.580312e+002,2.895617e+002
6.589954e+002,2.891032e+002
6.599597e+002,2.879082e+002
6.609239e+002,2.846106e+002
6.618881e+002,2.797903e+002
6.628524e+002,2.751926e+002
6.638166e+002,2.716477e+002
6.647808e+002,2.691870e+002
6.657451e+002,2.678689e+002
6.667093e+002,2.671130e+002
6.676735e+002,2.659850e+002
6.686378e+002,2.636896e+002
6.696020e+002,2.603205e+002
6.705662e+002,2.577380e+002
6.715305e+002,2.562612e+002
6.724947e+002,2.543102e+002
6.734589e+002,2.508737e+002
6.744232e+002,2.463517e+002
6.753874e+002,2.433516e+002
6.763516e+002,2.443046e+002
6.773159e+002,2.443446e+002
6.782801e+002,2.412908e+002
6.792443e+002,2.363760e+002
6.802086e+002,2.319744e+002
6.811728e+002,2.297101e+002
6.821370e+002,2.283771e+002
6.831013e+002,2.267799e+002
6.840655e+002,2.251800e+002
6.850297e+002,2.235790e+002
6.859940e+002,2.218512e+002
6.869582e+002,2.198366e+002
6.879224e+002,2.173923e+002
6.888867e+002,2.137456e+002
6.898509e+002,2.109303e+002
6.908151e+002,2.108382e+002
6.917794e+002,2.120056e+002
6.927436e+002,2.104239e+002
6.937078e+002,2.025496e+002
6.946721e+002,1.970044e+002
6.956363e+002,1.980265e+002
6.966005e+002,2.015035e+002
6.975648e+002,2.035600e+002
6.985290e+002,2.022981e+002
6.994932e+002,1.988373e+002
7.004575e+002,1.947362e+002
7.014217e+002,1.905763e+002
7.023859e+002,1.871340e+002
7.033502e+002,1.847645e+002
7.043144e+002,1.833311e+002
7.052786e+002,1.822537e+002
7.062429e+002,1.811725e+002
7.072071e+002,1.802213e+002
7.081713e+002,1.805991e+002
7.091356e+002,1.807796e+002
7.100998e+002,1.786348e+002
7.110640e+002,1.733069e+002
7.120283e+002,1.692296e+002
7.129925e+002,1.706119e+002
7.139567e+002,1.725962e+002
7.149210e+002,1.723834e+002
7.158852e+002,1.699046e+002
7.168494e+002,1.669163e+002
7.178137e+002,1.655560e+002
7.187779e+002,1.657714e+002
7.197421e+002,1.656310e+002
7.207064e+002,1.649424e+002
7.216706e+002,1.639479e+002
7.226348e+002,1.629961e+002
7.235991e+002,1.622952e+002
7.245633e+002,1.616683e+002
7.255275e+002,1.600526e+002
7.264918e+002,1.587094e+002
7.274560e+002,1.587972e+002
7.284202e+002,1.599149e+002
7.293845e+002,1.604862e+002
7.303487e+002,1.593109e+002
7.313129e+002,1.574907e+002
7.322772e+002,1.555988e+002
7.332414e+002,1.539408e+002
7.342056e+002,1.531640e+002
7.351699e+002,1.537175e+002
7.361341e+002,1.553402e+002
7.370983e+002,1.562226e+002
7.380626e+002,1.557928e+002
7.390268e+002,1.551463e+002
7.399910e+002,1.548882e+002
7.409553e+002,1.550917e+002
7.419195e+002,1.554365e+002
7.428837e+002,1.557783e+002
7.438480e+002,1.552088e+002
7.448122e+002,1.529988e+002
7.457764e+002,1.512834e+002
7.467407e+002,1.523484e+002
7.477049e+002,1.566299e+002
7.486691e+002,1.611768e+002
7.496334e+002,1.610636e+002
7.505976e+002,1.587625e+002
7.515618e+002,1.578556e+002
7.525261e+002,1.589338e+002
7.534903e+002,1.609412e+002
7.544545e+002,1.623804e+002
7.554188e+002,1.634954e+002
7.563830e+002,1.651642e+002
7.573472e+002,1.672729e+002
7.583115e+002,1.685581e+002
7.592757e+002,1.682804e+002
7.602399e+002,1.669931e+002
7.612042e+002,1.668064e+002
7.621684e+002,1.687838e+002
7.631326e+002,1.705352e+002
7.640969e+002,1.710023e+002
7.650611e+002,1.707482e+002
7.660253e+002,1.709983e+002
7.669896e+002,1.727902e+002
7.679538e+002,1.757250e+002
7.689180e+002,1.772177e+002
7.698823e+002,1.768640e+002
7.708465e+002,1.762682e+002
7.718107e+002,1.767052e+002
7.727750e+002,1.780984e+002
7.737392e+002,1.786858e+002
7.747034e+002,1.773585e+002
7.756677e+002,1.769227e+002
7.766319e+002,1.775056e+002
7.775961e+002,1.785224e+002
7.785604e+002,1.797642e+002
7.795246e+002,1.811983e+002
7.804888e+002,1.820787e+002
7.814531e+002,1.808066e+002
7.824173e+002,1.792533e+002
7.833815e+002,1.791705e+002
7.843458e+002,1.806097e+002
7.853100e+002,1.823083e+002
7.862742e+002,1.825332e+002
7.872385e+002,1.808080e+002
7.882027e+002,1.783662e+002
7.891669e+002,1.745564e+002
7.901312e+002,1.711282e+002
7.910954e+002,1.696647e+002
7.920596e+002,1.703391e+002
7.930239e+002,1.713791e+002
7.939881e+002,1.732355e+002
7.949523e+002,1.737559e+002
7.959166e+002,1.708423e+002
7.968808e+002,1.666858e+002
7.978450e+002,1.641402e+002
7.988093e+002,1.646871e+002
7.997735e+002,1.667879e+002
8.007377e+002,1.683091e+002
8.017020e+002,1.693009e+002
8.026662e+002,1.697306e+002
8.036304e+002,1.695848e+002
8.045947e+002,1.684996e+002
8.055589e+002,1.655767e+002
8.065231e+002,1.589852e+002
8.074874e+002,1.548989e+002
8.084516e+002,1.547010e+002
8.094158e+002,1.551861e+002
8.103801e+002,1.550332e+002
8.113443e+002,1.543603e+002
8.123085e+002,1.534508e+002
8.132728e+002,1.514762e+002
8.142370e+002,1.490190e+002
8.152012e+002,1.459641e+002
8.161655e+002,1.425293e+002
8.171297e+002,1.396771e+002
8.180939e+002,1.384106e+002
8.190582e+002,1.388204e+002
8.200224e+002,1.389115e+002
8.209866e+002,1.383592e+002
8.219509e+002,1.372735e+002
8.229151e+002,1.352678e+002
8.238793e+002,1.325735e+002
8.248436e+002,1.298430e+002
8.258078e+002,1.269712e+002
8.267720e+002,1.246764e+002
8.277363e+002,1.228419e+002
8.287005e+002,1.213013e+002
8.296647e+002,1.204290e+002
8.306290e+002,1.202492e+002
8.315932e+002,1.201639e+002
8.325574e+002,1.195042e+002
8.335217e+002,1.183318e+002
8.344859e+002,1.166265e+002
8.354501e+002,1.143326e+002
8.364144e+002,1.119329e+002
8.373786e+002,1.099527e+002
8.383428e+002,1.085503e+002
8.393071e+002,1.075062e+002
8.402713e+002,1.075215e+002
8.412355e+002,1.070194e+002
8.421998e+002,1.048933e+002
8.431640e+002,1.023084e+002
8.441282e+002,1.013428e+002
8.450925e+002,1.030246e+002
8.460567e+002,1.042247e+002
8.470209e+002,1.016403e+002
8.479852e+002,9.841018e+001
8.489494e+002,9.751841e+001
8.499136e+002,9.917649e+001
8.508779e+002,1.011791e+002
8.518421e+002,1.004659e+002
8.528063e+002,9.701242e+001
8.537706e+002,9.537502e+001
8.547348e+002,9.601295e+001
8.556990e+002,9.706480e+001
8.566633e+002,9.751192e+001
8.576275e+002,9.726776e+001
8.585917e+002,9.655044e+001
8.595560e+002,9.583794e+001
8.605202e+002,9.438338e+001
8.614844e+002,9.051974e+001
8.624487e+002,8.681657e+001
8.634129e+002,8.637084e+001
8.643771e+002,8.992175e+001
8.653414e+002,9.396765e+001
8.663056e+002,9.394695e+001
8.672698e+002,9.205461e+001
8.682341e+002,9.142411e+001
8.691983e+002,9.214785e+001
8.701625e+002,9.301965e+001
8.711268e+002,9.262950e+001
8.720910e+002,9.049300e+001
8.730552e+002,8.890392e+001
8.740195e+002,8.967664e+001
8.749837e+002,9.095493e+001
8.759479e+002,9.197496e+001
8.769122e+002,9.248633e+001
8.778764e+002,9.226521e+001
8.788406e+002,9.087141e+001
8.798049e+002,8.930202e+001
8.807691e+002,8.920503e+001
8.817333e+002,8.996156e+001
8.826976e+002,9.067389e+001
8.836618e+002,9.104839e+001
8.846260e+002,9.142934e+001
8.855903e+002,9.242944e+001
8.865545e+002,9.410105e+001
8.875187e+002,9.437055e+001
8.884830e+002,9.243045e+001
8.894472e+002,9.046221e+001
8.904114e+002,8.954426e+001
8.913757e+002,8.970071e+001
8.923399e+002,9.085739e+001
8.933041e+002,9.400071e+001
8.942684e+002,9.566215e+001
8.952326e+002,9.398661e+001
8.961968e+002,9.098422e+001
8.971611e+002,8.877590e+001
8.981253e+002,8.830518e+001
8.990895e+002,8.902886e+001
9.000538e+002,8.993521e+001
9.010180e+002,9.095752e+001
9.019822e+002,9.263071e+001
9.029465e+002,9.525823e+001
9.039107e+002,9.783717e+001
9.048749e+002,9.918821e+001
9.058392e+002,9.909704e+001
9.068034e+002,9.925311e+001
9.077676e+002,1.003201e+002
9.087319e+002,1.012537e+002
9.096961e+002,1.017926e+002
9.106603e+002,1.024170e+002
9.116246e+002,1.035499e+002
9.125888e+002,1.051821e+002
9.135530e+002,1.069353e+002
9.145173e+002,1.087679e+002
9.154815e+002,1.101172e+002
9.164457e+002,1.102205e+002
9.174100e+002,1.094182e+002
9.183742e+002,1.092178e+002
9.193384e+002,1.112938e+002
9.203027e+002,1.159138e+002
9.212669e+002,1.195427e+002
9.222311e+002,1.208365e+002
9.231954e+002,1.213514e+002
9.241596e+002,1.214411e+002
9.251238e+002,1.218863e+002
9.260881e+002,1.237770e+002
9.270523e+002,1.276182e+002
9.280165e+002,1.311325e+002
9.289808e+002,1.319807e+002
9.299450e+002,1.322610e+002
9.309092e+002,1.333655e+002
9.318735e+002,1.355339e+002
9.328377e+002,1.386788e+002
9.338019e+002,1.429197e+002
9.347662e+002,1.481726e+002
9.357304e+002,1.499813e+002
9.366946e+002,1.470441e+002
9.376589e+002,1.458743e+002
9.386231e+002,1.495052e+002
9.395873e+002,1.555591e+002
9.405516e+002,1.592296e+002
9.415158e+002,1.594829e+002
9.424800e+002,1.594795e+002
9.434443e+002,1.605204e+002
9.444085e+002,1.619001e+002
9.453727e+002,1.633051e+002
9.463370e+002,1.645105e+002
9.473012e+002,1.651703e+002
9.482654e+002,1.647958e+002
9.492297e+002,1.633327e+002
9.501939e+002,1.617107e+002
9.511581e+002,1.604125e+002
9.521224e+002,1.607101e+002
9.530866e+002,1.638633e+002
9.540508e+002,1.683725e+002
9.550151e+002,1.707090e+002
9.559793e+002,1.699661e+002
9.569435e+002,1.680187e+002
9.579078e+002,1.655372e+002
9.588720e+002,1.636616e+002
9.598362e+002,1.623132e+002
9.608005e+002,1.616442e+002
9.617647e+002,1.624697e+002
9.627289e+002,1.657461e+002
9.636932e+002,1.698635e+002
9.646574e+002,1.716392e+002
9.656216e+002,1.713557e+002
9.665859e+002,1.699303e+002
9.675501e+002,1.677019e+002
9.685143e+002,1.657422e+002
9.694786e+002,1.659299e+002
9.704428e+002,1.689672e+002
9.714070e+002,1.728019e+002
9.723713e+002,1.771543e+002
9.733355e+002,1.807534e+002
9.742997e+002,1.833043e+002
9.752640e+002,1.855062e+002
9.762282e+002,1.882487e+002
9.771924e+002,1.915852e+002
9.781567e+002,1.948849e+002
9.791209e+002,1.985801e+002
9.800851e+002,2.018851e+002
9.810494e+002,2.028077e+002
9.820136e+002,2.012023e+002
9.829778e+002,1.997261e+002
9.839421e+002,2.020414e+002
9.849063e+002,2.085018e+002
9.858705e+002,2.128232e+002
9.868348e+002,2.162964e+002
9.877990e+002,2.183792e+002
9.887632e+002,2.171513e+002
9.897275e+002,2.146162e+002
9.906917e+002,2.143752e+002
9.916559e+002,2.174001e+002
9.926202e+002,2.197000e+002
9.935844e+002,2.188063e+002
9.945486e+002,2.167625e+002
9.955129e+002,2.143097e+002
9.964771e+002,2.120801e+002
9.974413e+002,2.110346e+002
9.984056e+002,2.119010e+002
9.993698e+002,2.141926e+002
1.000334e+003,2.158484e+002
1.001298e+003,2.179052e+002
1.002263e+003,2.180035e+002
1.003227e+003,2.129319e+002
1.004191e+003,2.074147e+002
1.005155e+003,2.078340e+002
1.006119e+003,2.150892e+002
1.007084e+003,2.213388e+002
1.008048e+003,2.223275e+002
1.009012e+003,2.221551e+002
1.009976e+003,2.219952e+002
1.010941e+003,2.220075e+002
1.011905e+003,2.224974e+002
1.012869e+003,2.236762e+002
1.013833e+003,2.252929e+002
1.014798e+003,2.268796e+002
1.015762e+003,2.291600e+002
1.016726e+003,2.315992e+002
1.017690e+003,2.339381e+002
1.018654e+003,2.364392e+002
1.019619e+003,2.388909e+002
1.020583e+003,2.412265e+002
1.021547e+003,2.442881e+002
1.022511e+003,2.487037e+002
1.023476e+003,2.526416e+002
1.024440e+003,2.559814e+002
1.025404e+003,2.588722e+002
1.026368e+003,2.606350e+002
1.027333e+003,2.615974e+002
1.028297e+003,2.638235e+002
1.029261e+003,2.699505e+002
1.030225e+003,2.790708e+002
1.031190e+003,2.846772e+002
1.032154e+003,2.873837e+002
1.033118e+003,2.894482e+002
1.034082e+003,2.906052e+002
1.035047e+003,2.914797e+002
1.036011e+003,2.942285e+002
1.036975e+003,2.997789e+002
1.037939e+003,3.036191e+002
1.038903e+003,3.026875e+002
1.039868e+003,3.026538e+002
1.040832e+003,3.067115e+002
1.041796e+003,3.137408e+002
1.042760e+003,3.211881e+002
1.043725e+003,3.274816e+002
1.044689e+003,3.320262e+002
1.045653e+003,3.326649e+002
1.046617e+003,3.296293e+002
1.047582e+003,3.293750e+002
1.048546e+003,3.344956e+002
1.049510e+003,3.415340e+002
1.050474e+003,3.462774e+002
1.051438e+003,3.484361e+002
1.052403e+003,3.523276e+002
1.053367e+003,3.603636e+002
1.054331e+003,3.673507e+002
1.055295e+003,3.714053e+002
1.056260e+003,3.744291e+002
1.057224e+003,3.785721e+002
1.058188e+003,3.842532e+002
1.059152e+003,3.898943e+002
1.060117e+003,3.934976e+002
1.061081e+003,3.957193e+002
1.062045e+003,3.999364e+002
1.063009e+003,4.056256e+002
1.063974e+003,4.112588e+002
1.064938e+003,4.173230e+002
1.065902e+003,4.236184e+002
1.066866e+003,4.282987e+002
1.067830e+003,4.298497e+002
1.068795e+003,4.329059e+002
1.069759e+003,4.404917e+002
1.070723e+003,4.483461e+002
1.071687e+003,4.555333e+002
1.072652e+003,4.619553e+002
1.073616e+003,4.670512e+002
1.074580e+003,4.702289e+002
1.075544e+003,4.722322e+002
1.076509e+003,4.750256e+002
1.077473e+003,4.786958e+002
1.078437e+003,4.818474e+002
1.079401e+003,4.842845e+002
1.080365e+003,4.872027e+002
1.081330e+003,4.913572e+002
1.082294e+003,4.964590e+002
1.083258e+003,5.017673e+002
1.084222e+003,5.084459e+002
1.085187e+003,5.132372e+002
1.086151e+003,5.144347e+002
1.087115e+003,5.149034e+002
1.088079e+003,5.167314e+002
1.089043e+003,5.196985e+002
1.090008e+003,5.220010e+002
1.090972e+003,5.222793e+002
1.091936e+003,5.216595e+002
1.092900e+003,5.236025e+002
1.093865e+003,5.276006e+002
1.094829e+003,5.301830e+002
1.095793e+003,5.309606e+002
1.096757e+003,5.303096e+002
1.097722e+003,5.275654e+002
1.098686e+003,5.222292e+002
1.099650e+003,5.176639e+002
1.100614e+003,5.157744e+002
1.101578e+003,5.147543e+002
1.102543e+003,5.156199e+002
1.103507e+003,5.155689e+002
1.104471e+003,5.102911e+002
1.105435e+003,4.997472e+002
1.106400e+003,4.891337e+002
1.107364e+003,4.842144e+002
1.108328e+003,4.839296e+002
1.109292e+003,4.815951e+002
1.110257e+003,4.775836e+002
1.111221e+003,4.730300e+002
1.112185e+003,4.668360e+002
1.113149e+003,4.598302e+002
1.114114e+003,4.541153e+002
1.115078e+003,4.503164e+002
1.116042e+003,4.457901e+002
1.117006e+003,4.394514e+002
1.117970e+003,4.331604e+002
1.118935e+003,4.276594e+002
1.119899e+003,4.218362e+002
1.120863e+003,4.141953e+002
1.121827e+003,4.048729e+002
1.122792e+003,3.960299e+002
1.123756e+003,3.899309e+002
1.124720e+003,3.856183e+002
1.125684e+003,3.799329e+002
1.126649e+003,3.736049e+002
1.127613e+003,3.675647e+002
1.128577e+003,3.620653e+002
1.129541e+003,3.567409e+002
1.130505e+003,3.510421e+002
1.131470e+003,3.447625e+002
1.132434e+003,3.380676e+002
1.133398e+003,3.305830e+002
1.134362e+003,3.241485e+002
1.135327e+003,3.204053e+002
1.136291e+003,3.174753e+002
1.137255e+003,3.121822e+002
1.138219e+003,3.038864e+002
1.139184e+003,2.959838e+002
1.140148e+003,2.932936e+002
1.141112e+003,2.951925e+002
1.142076e+003,2.918308e+002
1.143041e+003,2.819070e+002
1.144005e+003,2.732880e+002
1.144969e+003,2.693332e+002
1.145933e+003,2.676939e+002
1.146897e+003,2.647268e+002
1.147862e+003,2.597491e+002
1.148826e+003,2.547967e+002
1.149790e+003,2.520487e+002
1.150754e+003,2.486664e+002
1.151719e+003,2.418594e+002
1.152683e+003,2.337287e+002
1.153647e+003,2.275995e+002
1.154611e+003,2.246903e+002
1.155576e+003,2.233264e+002
1.156540e+003,2.209110e+002
1.157504e+003,2.168560e+002
1.158468e+003,2.123158e+002
1.159432e+003,2.075057e+002
1.160397e+003,2.031451e+002
1.161361e+003,2.004089e+002
1.162325e+003,1.981443e+002
1.163289e+003,1.940188e+002
1.164254e+003,1.876630e+002
1.165218e+003,1.825864e+002
1.166182e+003,1.815810e+002
1.167146e+003,1.817070e+002
1.168111e+003,1.808577e+002
1.169075e+003,1.787457e+002
1.170039e+003,1.745593e+002
1.171003e+003,1.683096e+002
1.171968e+003,1.618257e+002
1.172932e+003,1.576584e+002
1.173896e+003,1.560293e+002
1.174860e+003,1.548331e+002
1.175824e+003,1.550533e+002
1.176789e+003,1.535860e+002
1.177753e+003,1.492048e+002
1.178717e+003,1.440011e+002
1.179681e+003,1.395356e+002
1.180646e+003,1.359553e+002
1.181610e+003,1.329229e+002
1.182574e+003,1.305202e+002
1.183538e+003,1.280395e+002
1.184503e+003,1.240051e+002
1.185467e+003,1.194922e+002
1.186431e+003,1.165605e+002
1.187395e+003,1.154892e+002
1.188359e+003,1.148087e+002
1.189324e+003,1.134631e+002
1.190288e+003,1.117264e+002
1.191252e+003,1.092232e+002
1.192216e+003,1.048980e+002
1.193181e+003,1.010750e+002
1.194145e+003,9.790920e+001
1.195109e+003,9.472795e+001
1.196073e+003,9.140814e+001
1.197038e+003,8.823652e+001
1.198002e+003,8.538020e+001
1.198966e+003,8.279463e+001
1.199930e+003,8.079494e+001
1.200895e+003,8.024677e+001
1.201859e+003,8.077466e+001
1.202823e+003,8.076958e+001
1.203787e+003,8.000351e+001
1.204751e+003,7.901649e+001
1.205716e+003,7.875127e+001
1.206680e+003,7.855757e+001
1.207644e+003,7.604448e+001
1.208608e+003,7.030463e+001
1.209573e+003,6.518783e+001
1.210537e+003,6.233414e+001
1.211501e+003,6.036608e+001
1.212465e+003,5.854613e+001
1.213430e+003,5.731879e+001
1.214394e+003,5.750311e+001
1.215358e+003,5.879119e+001
1.216322e+003,5.942918e+001
1.217286e+003,5.766183e+001
1.218251e+003,5.405140e+001
1.219215e+003,5.170434e+001
1.220179e+003,5.117398e+001
1.221143e+003,5.070263e+001
1.222108e+003,4.967355e+001
1.223072e+003,4.860075e+001
1.224036e+003,4.796674e+001
1.225000e+003,4.741793e+001
1.225965e+003,4.586166e+001
1.226929e+003,4.220347e+001
1.227893e+003,3.855168e+001
1.228857e+003,3.798961e+001
1.229822e+003,3.888505e+001
1.230786e+003,3.845267e+001
1.231750e+003,3.633717e+001
1.232714e+003,3.440350e+001
1.233678e+003,3.430589e+001
1.234643e+003,3.550600e+001
1.235607e+003,3.623832e+001
1.236571e+003,3.722614e+001
1.237535e+003,3.748167e+001
1.238500e+003,3.580688e+001
1.239464e+003,3.425404e+001
1.240428e+003,3.362087e+001
1.241392e+003,3.344229e+001
1.242357e+003,3.336295e+001
1.243321e+003,3.356149e+001
1.244285e+003,3.377718e+001
1.245249e+003,3.325356e+001
1.246214e+003,3.285876e+001
1.247178e+003,3.417204e+001
1.248142e+003,3.637514e+001
1.249106e+003,3.725208e+001
1.250070e+003,3.604191e+001
1.251035e+003,3.390979e+001
1.251999e+003,3.221481e+001
1.252963e+003,3.092253e+001
1.253927e+003,2.974658e+001
1.254892e+003,2.913844e+001
1.255856e+003,2.830818e+001
1.256820e+003,2.602748e+001
1.257784e+003,2.409451e+001
1.258749e+003,2.420869e+001
1.259713e+003,2.598829e+001
1.260677e+003,2.808587e+001
1.261641e+003,2.965189e+001
1.262605e+003,3.023824e+001
1.263570e+003,2.874053e+001
1.264534e+003,2.523861e+001
1.265498e+003,2.426311e+001
1.266462e+003,2.713100e+001
1.267427e+003,2.974790e+001
1.268391e+003,2.995251e+001
1.269355e+003,2.843604e+001
1.270319e+003,2.655782e+001
1.271284e+003,2.466310e+001
1.272248e+003,2.298067e+001
1.273212e+003,2.151417e+001
1.274176e+003,2.135352e+001
1.275141e+003,2.290014e+001
1.276105e+003,2.452311e+001
1.277069e+003,2.470502e+001
1.278033e+003,2.347337e+001
1.278997e+003,2.190505e+001
1.279962e+003,2.096776e+001
1.280926e+003,2.104250e+001
1.281890e+003,2.250717e+001
1.282854e+003,2.553246e+001
1.283819e+003,2.652386e+001
1.284783e+003,2.489802e+001
1.285747e+003,2.308082e+001
1.286711e+003,2.223096e+001
1.287676e+003,2.248621e+001
1.288640e+003,2.411310e+001
1.289604e+003,2.672673e+001
1.290568e+003,2.780228e+001
1.291532e+003,2.460396e+001
1.292497e+003,1.948241e+001
1.293461e+003,1.812270e+001
1.294425e+003,1.997802e+001
1.295389e+003,2.116310e+001
1.296354e+003,2.015115e+001
1.297318e+003,1.849944e+001
1.298282e+003,1.770605e+001
1.299246e+003,1.766785e+001
1.300211e+003,1.820003e+001
1.301175e+003,2.018483e+001
1.302139e+003,2.172877e+001
1.303103e+003,2.066949e+001
1.304068e+003,1.938713e+001
1.305032e+003,2.009177e+001
1.305996e+003,2.181331e+001
1.306960e+003,2.236797e+001
1.307924e+003,2.107919e+001
1.308889e+003,1.925518e+001
1.309853e+003,1.816536e+001
1.310817e+003,1.716929e+001
1.311781e+003,1.684887e+001
1.312746e+003,2.008203e+001
1.313710e+003,2.179720e+001
1.314674e+003,1.981283e+001
1.315638e+003,1.721919e+001
1.316603e+003,1.551881e+001
1.317567e+003,1.457600e+001
1.318531e+003,1.493774e+001
1.319495e+003,1.758561e+001
1.320459e+003,2.052639e+001
1.321424e+003,2.101720e+001
1.322388e+003,1.978653e+001
1.323352e+003,1.856458e+001
1.324316e+003,1.754952e+001
1.325281e+003,1.716716e+001
1.326245e+003,1.772186e+001
1.327209e+003,1.853364e+001
1.328173e+003,1.876449e+001
1.329138e+003,1.840042e+001
1.330102e+003,1.739980e+001
1.331066e+003,1.521932e+001
1.332030e+003,1.425819e+001
1.332995e+003,1.523908e+001
1.333959e+003,1.653625e+001
1.334923e+003,1.706985e+001
1.335887e+003,1.704792e+001
1.336851e+003,1.742698e+001
1.337816e+003,1.873853e+001
1.338780e+003,2.045762e+001
1.339744e+003,2.151757e+001
1.340708e+003,2.155251e+001
1.341673e+003,2.073257e+001
1.342637e+003,1.856815e+001
1.343601e+003,1.698655e+001
1.344565e+003,1.706449e+001
1.345530e+003,1.764066e+001
1.346494e+003,1.771078e+001
1.347458e+003,1.737637e+001
1.348422e+003,1.695453e+001
1.349386e+003,1.627745e+001
1.350351e+003,1.593038e+001
1.351315e+003,1.735571e+001
1.352279e+003,1.926083e+001
1.353243e+003,1.901513e+001
1.354208e+003,1.728584e+001
1.355172e+003,1.663155e+001
1.356136e+003,1.785429e+001
1.357100e+003,1.921098e+001
1.358065e+003,1.862505e+001
1.359029e+003,1.657708e+001
1.359993e+003,1.629186e+001
1.360957e+003,1.899364e+001
1.361922e+003,2.097398e+001
1.362886e+003,2.096034e+001
1.363850e+003,2.027209e+001
1.364814e+003,1.859403e+001
1.365778e+003,1.664594e+001
1.366743e+003,1.592899e+001
1.367707e+003,1.665998e+001
1.368671e+003,1.728689e+001
1.369635e+003,1.633952e+001
1.370600e+003,1.446851e+001
1.371564e+003,1.323762e+001
1.372528e+003,1.209693e+001
1.373492e+003,1.195570e+001
1.374457e+003,1.333271e+001
1.375421e+003,1.457257e+001
1.376385e+003,1.522503e+001
1.377349e+003,1.558708e+001
1.378313e+003,1.581332e+001
1.379278e+003,1.586414e+001
1.380242e+003,1.602591e+001
1.381206e+003,1.684161e+001
1.382170e+003,1.764749e+001
1.383135e+003,1.637585e+001
1.384099e+003,1.406336e+001
1.385063e+003,1.373183e+001
1.386027e+003,1.543997e+001
1.386992e+003,1.720944e+001
1.387956e+003,1.878373e+001
1.388920e+003,2.016190e+001
1.389884e+003,2.064846e+001
1.390849e+003,2.028084e+001
1.391813e+003,1.986140e+001
1.392777e+003,1.853020e+001
1.393741e+003,1.713149e+001
1.394705e+003,1.748413e+001
1.395670e+003,1.856570e+001
1.396634e+003,1.854638e+001
1.397598e+003,1.732381e+001
1.398562e+003,1.643027e+001
1.399527e+003,1.696245e+001
1.400491e+003,1.798626e+001
1.401455e+003,1.745172e+001
1.402419e+003,1.521423e+001
1.403384e+003,1.414063e+001
1.404348e+003,1.443127e+001
1.405312e+003,1.421135e+001
1.406276e+003,1.409378e+001
1.407240e+003,1.501759e+001
1.408205e+003,1.719298e+001
1.409169e+003,1.934847e+001
1.410133e+003,2.004986e+001
1.411097e+003,1.896895e+001
1.412062e+003,1.679808e+001
1.413026e+003,1.437323e+001
1.413990e+003,1.261598e+001
1.414954e+003,1.282137e+001
1.415919e+003,1.481155e+001
1.416883e+003,1.584647e+001
1.417847e+003,1.450992e+001
1.418811e+003,1.320675e+001
1.419776e+003,1.347304e+001
1.420740e+003,1.463367e+001
1.421704e+003,1.585526e+001
1.422668e+003,1.707326e+001
1.423632e+003,1.787640e+001
1.424597e+003,1.794534e+001
1.425561e+003,1.754034e+001
1.426525e+003,1.651167e+001
1.427489e+003,1.551431e+001
1.428454e+003,1.562419e+001
1.429418e+003,1.678307e+001
1.430382e+003,1.768695e+001
1.431346e+003,1.721442e+001
1.432311e+003,1.605524e+001
1.433275e+003,1.623871e+001
1.434239e+003,1.828331e+001
1.435203e+003,1.935526e+001
1.436167e+003,1.791530e+001
1.437132e+003,1.677837e+001
1.438096e+003,1.739157e+001
1.439060e+003,1.781921e+001
1.440024e+003,1.739431e+001
1.440989e+003,1.666820e+001
1.441953e+003,1.569263e+001
1.442917e+003,1.446774e+001
1.443881e+003,1.404477e+001
1.444846e+003,1.586668e+001
1.445810e+003,1.933103e+001
1.446774e+003,2.092558e+001
1.447738e+003,1.957798e+001
1.448703e+003,1.782571e+001
1.449667e+003,1.487751e+001
1.450631e+003,1.288250e+001
1.451595e+003,1.328104e+001
1.452559e+003,1.464643e+001
1.453524e+003,1.549992e+001
1.454488e+003,1.579034e+001
1.455452e+003,1.631618e+001
1.456416e+003,1.736192e+001
1.457381e+003,1.815918e+001
1.458345e+003,1.776063e+001
1.459309e+003,1.627534e+001
1.460273e+003,1.537129e+001
1.461238e+003,1.599568e+001
1.462202e+003,1.637215e+001
1.463166e+003,1.512946e+001
1.464130e+003,1.466821e+001
1.465094e+003,1.707133e+001
1.466059e+003,2.001960e+001
1.467023e+003,1.980107e+001
1.467987e+003,1.651315e+001
1.468951e+003,1.409233e+001
1.469916e+003,1.492207e+001
1.470880e+003,1.744559e+001
1.471844e+003,1.875450e+001
1.472808e+003,1.868810e+001
1.473773e+003,1.918121e+001
1.474737e+003,2.087281e+001
1.475701e+003,2.223083e+001
1.476665e+003,2.273651e+001
1.477630e+003,2.272662e+001
1.478594e+003,2.194578e+001
1.479558e+003,2.022439e+001
1.480522e+003,1.854395e+001
1.481486e+003,1.731564e+001
1.482451e+003,1.645350e+001
1.483415e+003,1.541794e+001
1.484379e+003,1.521935e+001
1.485343e+003,1.751643e+001
1.486308e+003,2.101028e+001
1.487272e+003,2.289854e+001
1.488236e+003,2.272417e+001
1.489200e+003,2.297619e+001
1.490165e+003,2.572868e+001
1.491129e+003,2.932787e+001
1.492093e+003,3.008829e+001
1.493057e+003,2.794131e+001
1.494021e+003,2.698878e+001
1.494986e+003,2.829643e+001
1.495950e+003,2.975423e+001
1.496914e+003,3.025060e+001
1.497878e+003,3.042434e+001
1.498843e+003,3.100413e+001
1.499807e+003,3.174280e+001
1.500771e+003,3.176974e+001
1.501735e+003,3.099966e+001
1.502700e+003,3.059153e+001
1.503664e+003,3.157451e+001
1.504628e+003,3.337339e+001
1.505592e+003,3.469468e+001
1.506557e+003,3.592215e+001
1.507521e+003,3.700826e+001
1.508485e+003,3.761267e+001
1.509449e+003,3.781345e+001
1.510413e+003,3.719239e+001
1.511378e+003,3.625420e+001
1.512342e+003,3.597206e+001
1.513306e+003,3.588450e+001
1.514270e+003,3.421362e+001
1.515235e+003,3.068745e+001
1.516199e+003,2.799801e+001
1.517163e+003,2.900418e+001
1.518127e+003,3.229288e+001
1.519092e+003,3.270927e+001
1.520056e+003,2.890659e+001
1.521020e+003,2.661074e+001
1.521984e+003,2.616664e+001
1.522948e+003,2.646941e+001
1.523913e+003,2.814536e+001
1.524877e+003,3.035761e+001
1.525841e+003,3.265073e+001
1.526805e+003,3.437934e+001
1.527770e+003,3.382304e+001
1.528734e+003,3.046264e+001
1.529698e+003,2.733576e+001
1.530662e+003,2.778738e+001
1.531627e+003,3.011800e+001
1.532591e+003,2.893167e+001
1.533555e+003,2.373575e+001
1.534519e+003,2.036166e+001
1.535484e+003,1.996358e+001
1.536448e+003,1.998267e+001
1.537412e+003,1.926208e+001
1.538376e+003,1.831760e+001
1.539340e+003,1.778516e+001
1.540305e+003,1.789286e+001
1.541269e+003,1.887196e+001
1.542233e+003,2.048996e+001
1.543197e+003,2.096728e+001
1.544162e+003,1.869898e+001
1.545126e+003,1.533639e+001
1.546090e+003,1.464956e+001
1.547054e+003,1.696603e+001
1.548019e+003,1.960178e+001
1.548983e+003,2.138479e+001
1.549947e+003,2.216134e+001
1.550911e+003,2.170918e+001
1.551875e+003,2.085217e+001
1.552840e+003,2.123032e+001
1.553804e+003,2.267426e+001
1.554768e+003,2.262833e+001
1.555732e+003,1.995081e+001
1.556697e+003,1.747959e+001
1.557661e+003,1.738494e+001
1.558625e+003,1.824226e+001
1.559589e+003,1.778262e+001
1.560554e+003,1.669804e+001
1.561518e+003,1.680607e+001
1.562482e+003,1.833781e+001
1.563446e+003,1.960069e+001
1.564411e+003,2.019491e+001
1.565375e+003,2.009547e+001
1.566339e+003,1.829938e+001
1.567303e+003,1.550620e+001
1.568267e+003,1.496968e+001
1.569232e+003,1.731768e+001
1.570196e+003,1.934242e+001
1.571160e+003,1.976585e+001
1.572124e+003,1.899262e+001
1.573089e+003,1.672560e+001
1.574053e+003,1.448062e+001
1.575017e+003,1.452843e+001
1.575981e+003,1.670457e+001
1.576946e+003,1.871800e+001
1.577910e+003,1.932848e+001
1.578874e+003,1.893210e+001
1.579838e+003,1.848159e+001
1.580802e+003,1.847205e+001
1.581767e+003,1.839580e+001
1.582731e+003,1.758205e+001
1.583695e+003,1.771680e+001
1.584659e+003,2.006423e+001
1.585624e+003,2.213110e+001
1.586588e+003,2.311574e+001
1.587552e+003,2.330490e+001
1.588516e+003,2.103960e+001
1.589481e+003,1.721227e+001
1.590445e+003,1.664526e+001
1.591409e+003,2.136950e+001
1.592373e+003,2.555370e+001
1.593338e+003,2.259917e+001
1.594302e+003,1.592454e+001
1.595266e+003,1.418502e+001
1.596230e+003,1.739484e+001
1.597194e+003,1.978001e+001
1.598159e+003,1.958284e+001
1.599123e+003,1.939848e+001
1.600087e+003,2.182417e+001
1.601051e+003,2.409299e+001
1.602016e+003,2.298075e+001
1.602980e+003,1.969543e+001
1.603944e+003,1.746998e+001
1.604908e+003,1.734419e+001
1.605873e+003,1.804371e+001
1.606837e+003,1.881001e+001
1.607801e+003,1.956995e+001
1.608765e+003,1.993945e+001
1.609729e+003,1.944743e+001
1.610694e+003,1.778451e+001
1.611658e+003,1.483422e+001
1.612622e+003,1.315506e+001
1.613586e+003,1.510760e+001
1.614551e+003,1.751339e+001
1.615515e+003,1.670982e+001
1.616479e+003,1.458112e+001
1.617443e+003,1.408382e+001
1.618408e+003,1.539285e+001
1.619372e+003,1.727927e+001
1.620336e+003,1.958524e+001
1.621300e+003,2.132669e+001
1.622265e+003,2.039370e+001
1.623229e+003,1.791846e+001
1.624193e+003,1.819091e+001
1.625157e+003,2.130344e+001
1.626121e+003,2.288277e+001
1.627086e+003,2.158427e+001
1.628050e+003,2.006753e+001
1.629014e+003,1.972544e+001
1.629978e+003,1.955146e+001
1.630943e+003,1.858529e+001
1.631907e+003,1.733102e+001
1.632871e+003,1.744084e+001
1.633835e+003,1.946752e+001
1.634800e+003,2.078728e+001
1.635764e+003,1.879455e+001
1.636728e+003,1.634770e+001
1.637692e+003,1.795291e+001
1.638656e+003,2.232027e+001
1.639621e+003,2.476123e+001
1.640585e+003,2.475755e+001
1.641549e+003,2.294202e+001
1.642513e+003,1.885655e+001
1.643478e+003,1.599043e+001
1.644442e+003,1.812436e+001
1.645406e+003,2.188158e+001
1.646370e+003,2.271765e+001
1.647335e+003,2.076026e+001
1.648299e+003,1.946223e+001
1.649263e+003,2.038076e+001
1.650227e+003,2.117403e+001
1.651192e+003,1.906068e+001
1.652156e+003,1.605817e+001
1.653120e+003,1.636284e+001
1.654084e+003,1.961429e+001
1.655048e+003,2.183198e+001
1.656013e+003,2.201774e+001
1.656977e+003,2.173762e+001
1.657941e+003,2.135947e+001
1.658905e+003,2.080035e+001
1.659870e+003,2.045985e+001
1.660834e+003,2.077261e+001
1.661798e+003,2.233555e+001
1.662762e+003,2.501109e+001
1.663727e+003,2.577990e+001
1.664691e+003,2.229521e+001
1.665655e+003,1.810270e+001
1.666619e+003,1.574326e+001
1.667583e+003,1.524513e+001
1.668548e+003,1.700665e+001
1.669512e+003,2.037089e+001
1.670476e+003,2.265284e+001
1.671440e+003,2.343845e+001
1.672405e+003,2.318745e+001
1.673369e+003,2.113564e+001
1.674333e+003,1.875041e+001
1.675297e+003,1.976489e+001
1.676262e+003,2.340839e+001
1.677226e+003,2.524202e+001
1.678190e+003,2.439376e+001
1.679154e+003,2.349190e+001
1.680119e+003,2.363136e+001
1.681083e+003,2.377924e+001
1.682047e+003,2.338811e+001
1.683011e+003,2.252335e+001
1.683975e+003,2.106397e+001
1.684940e+003,1.934800e+001
1.685904e+003,1.826546e+001
1.686868e+003,1.804979e+001
1.687832e+003,1.874915e+001
1.688797e+003,2.022421e+001
1.689761e+003,2.215922e+001
1.690725e+003,2.528276e+001
1.691689e+003,3.040893e+001
1.692654e+003,3.249633e+001
1.693618e+003,2.952673e+001
1.694582e+003,2.772276e+001
1.695546e+003,2.834727e+001
1.696510e+003,2.923727e+001
1.697475e+003,2.936664e+001
1.698439e+003,2.940508e+001
1.699403e+003,3.048141e+001
1.700367e+003,3.245409e+001
1.701332e+003,3.386250e+001
1.702296e+003,3.396288e+001
1.703260e+003,3.371979e+001
1.704224e+003,3.416933e+001
1.705189e+003,3.494296e+001
1.706153e+003,3.563553e+001
1.707117e+003,3.650650e+001
1.708081e+003,3.513919e+001
1.709046e+003,3.004568e+001
1.710010e+003,2.804445e+001
1.710974e+003,3.101338e+001
1.711938e+003,3.452367e+001
1.712902e+003,3.629636e+001
1.713867e+003,3.640790e+001
1.714831e+003,3.545895e+001
1.715795e+003,3.434937e+001
1.716759e+003,3.391965e+001
1.717724e+003,3.439818e+001
1.718688e+003,3.565527e+001
1.719652e+003,3.763051e+001
1.720616e+003,3.988087e+001
1.721581e+003,4.177852e+001
1.722545e+003,4.399922e+001
1.723509e+003,4.290517e+001
1.724473e+003,3.481659e+001
1.725438e+003,3.045232e+001
1.726402e+003,3.596750e+001
1.727366e+003,4.152187e+001
1.728330e+003,4.182701e+001
1.729294e+003,3.935847e+001
1.730259e+003,3.676146e+001
1.731223e+003,3.487184e+001
1.732187e+003,3.464560e+001
1.733151e+003,3.632988e+001
1.734116e+003,3.779724e+001
1.735080e+003,3.704083e+001
1.736044e+003,3.538660e+001
1.737008e+003,3.522968e+001
1.737973e+003,3.615631e+001
1.738937e+003,3.634581e+001
1.739901e+003,3.545274e+001
1.740865e+003,3.488058e+001
1.741829e+003,3.566180e+001
1.742794e+003,3.645065e+001
1.743758e+003,3.574098e+001
1.744722e+003,3.447922e+001
1.745686e+003,3.368774e+001
1.746651e+003,3.343477e+001
1.747615e+003,3.434372e+001
1.748579e+003,3.682768e+001
1.749543e+003,3.905017e+001
1.750508e+003,4.015977e+001
1.751472e+003,4.077179e+001
1.752436e+003,4.154466e+001
1.753400e+003,4.179356e+001
1.754365e+003,3.973215e+001
1.755329e+003,3.570656e+001
1.756293e+003,3.332079e+001
1.757257e+003,3.423709e+001
1.758221e+003,3.605084e+001
1.759186e+003,3.655344e+001
1.760150e+003,3.652684e+001
1.761114e+003,3.714992e+001
1.762078e+003,3.779597e+001
1.763043e+003,3.780795e+001
1.764007e+003,3.636198e+001
1.764971e+003,3.515050e+001
1.765935e+003,3.595427e+001
1.766900e+003,3.709142e+001
1.767864e+003,3.719901e+001
1.768828e+003,3.679555e+001
1.769792e+003,3.630194e+001
1.770756e+003,3.610551e+001
1.771721e+003,3.710463e+001
1.772685e+003,3.893848e+001
1.773649e+003,3.888551e+001
1.774613e+003,3.502971e+001
1.775578e+003,3.039490e+001
1.776542e+003,3.081380e+001
1.777506e+003,3.605734e+001
1.778470e+003,3.853044e+001
1.779435e+003,3.710399e+001
1.780399e+003,3.540282e+001
1.781363e+003,3.438084e+001
1.782327e+003,3.365634e+001
1.783292e+003,3.173994e+001
1.784256e+003,2.997723e+001
1.785220e+003,3.102965e+001
1.786184e+003,3.345576e+001
1.787148e+003,3.323869e+001
1.788113e+003,2.994931e+001
1.789077e+003,2.783623e+001
1.790041e+003,2.946008e+001
1.791005e+003,3.150339e+001
1.791970e+003,3.049185e+001
1.792934e+003,2.807256e+001
1.793898e+003,2.704314e+001
1.794862e+003,2.726054e+001
1.795827e+003,2.791728e+001
1.796791e+003,2.872232e+001
1.797755e+003,3.047780e+001
1.798719e+003,3.440759e+001
1.799683e+003,3.740923e+001
1.800648e+003,3.494179e+001
1.801612e+003,2.913489e+001
1.802576e+003,2.768552e+001
1.803540e+003,3.060472e+001
1.804505e+003,3.125037e+001
1.805469e+003,2.867996e+001
1.806433e+003,2.673514e+001
1.807397e+003,2.531969e+001
1.808362e+003,2.478166e+001
1.809326e+003,2.631206e+001
1.810290e+003,2.844664e+001
1.811254e+003,2.902025e+001
1.812219e+003,2.843564e+001
1.813183e+003,2.869630e+001
1.814147e+003,3.003075e+001
1.815111e+003,3.037216e+001
1.816075e+003,2.851477e+001
1.817040e+003,2.605875e+001
1.818004e+003,2.508781e+001
1.818968e+003,2.553108e+001
1.819932e+003,2.656802e+001
1.820897e+003,2.744389e+001
1.821861e+003,2.773375e+001
1.822825e+003,2.726764e+001
1.823789e+003,2.721753e+001
1.824754e+003,2.973357e+001
1.825718e+003,3.262950e+001
1.826682e+003,3.332999e+001
1.827646e+003,3.247450e+001
1.828610e+003,3.211639e+001
1.829575e+003,3.238103e+001
1.830539e+003,3.116060e+001
1.831503e+003,2.714537e+001
1.832467e+003,2.365448e+001
1.833432e+003,2.363576e+001
1.834396e+003,2.516936e+001
1.835360e+003,2.658154e+001
1.836324e+003,2.802325e+001
1.837289e+003,2.795837e+001
1.838253e+003,2.597224e+001
1.839217e+003,2.548169e+001
1.840181e+003,2.816449e+001
1.841146e+003,3.066338e+001
1.842110e+003,3.032706e+001
1.843074e+003,2.870558e+001
1.844038e+003,2.805998e+001
1.845002e+003,2.824104e+001
1.845967e+003,2.902159e+001
1.846931e+003,3.077077e+001
1.847895e+003,3.282687e+001
1.848859e+003,3.536450e+001
1.849824e+003,3.609840e+001
1.850788e+003,3.438112e+001
1.851752e+003,3.183321e+001
1.852716e+003,2.886526e+001
1.853681e+003,2.701674e+001
1.854645e+003,2.823006e+001
1.855609e+003,3.170764e+001
1.856573e+003,3.476060e+001
1.857537e+003,3.590683e+001
1.858502e+003,3.505353e+001
1.859466e+003,3.241586e+001
1.860430e+003,2.953070e+001
1.861394e+003,2.801724e+001
1.862359e+003,2.736736e+001
1.863323e+003,2.703493e+001
1.864287e+003,2.687320e+001
1.865251e+003,2.801193e+001
1.866216e+003,3.188744e+001
1.867180e+003,3.496300e+001
1.868144e+003,3.370761e+001
1.869108e+003,3.074863e+001
1.870073e+003,3.069557e+001
1.871037e+003,3.282733e+001
1.872001e+003,3.221825e+001
1.872965e+003,2.826993e+001
1.873929e+003,2.693011e+001
1.874894e+003,3.120200e+001
1.875858e+003,3.363373e+001
1.876822e+003,3.135738e+001
1.877786e+003,2.796133e+001
1.878751e+003,2.423418e+001
1.879715e+003,2.208167e+001
1.880679e+003,2.487494e+001
1.881643e+003,3.084119e+001
1.882608e+003,3.483228e+001
1.883572e+003,3.522844e+001
1.884536e+003,3.421922e+001
1.885500e+003,3.333066e+001
1.886464e+003,3.261523e+001
1.887429e+003,3.306804e+001
1.888393e+003,3.465671e+001
1.889357e+003,3.393571e+001
1.890321e+003,3.043312e+001
1.891286e+003,3.021855e+001
1.892250e+003,3.504163e+001
1.893214e+003,3.765950e+001
1.894178e+003,3.453938e+001
1.895143e+003,3.123384e+001
1.896107e+003,3.242368e+001
1.897071e+003,3.564291e+001
1.898035e+003,3.606367e+001
1.899000e+003,3.347224e+001
1.899964e+003,3.165967e+001
1.900928e+003,3.336301e+001
1.901892e+003,3.444069e+001
1.902856e+003,3.122899e+001
1.903821e+003,2.858943e+001
1.904785e+003,2.940379e+001
1.905749e+003,3.085010e+001
1.906713e+003,3.071852e+001
1.907678e+003,3.030966e+001
1.908642e+003,3.201530e+001
1.909606e+003,3.522325e+001
1.910570e+003,3.677521e+001
1.911535e+003,3.540619e+001
1.912499e+003,3.318883e+001
1.913463e+003,3.172830e+001
1.914427e+003,3.020926e+001
1.915391e+003,2.793164e+001
1.916356e+003,2.571001e+001
1.917320e+003,2.544417e+001
1.918284e+003,2.744225e+001
1.919248e+003,2.920522e+001
1.920213e+003,2.915756e+001
1.921177e+003,2.951288e+001
1.922141e+003,3.269537e+001
1.923105e+003,3.543446e+001
1.924070e+003,3.325125e+001
1.925034e+003,2.829709e+001
1.925998e+003,2.679117e+001
1.926962e+003,2.880373e+001
1.927927e+003,3.008498e+001
1.928891e+003,3.086023e+001
1.929855e+003,3.055138e+001
1.930819e+003,2.760689e+001
1.931783e+003,2.488438e+001
1.932748e+003,2.410898e+001
1.933712e+003,2.444371e+001
1.934676e+003,2.510023e+001
1.935640e+003,2.588644e+001
1.936605e+003,2.661852e+001
1.937569e+003,2.706458e+001
1.938533e+003,2.752545e+001
1.939497e+003,2.870251e+001
1.940462e+003,3.006549e+001
1.941426e+003,3.013770e+001
1.942390e+003,2.940135e+001
1.943354e+003,2.904935e+001
1.944318e+003,2.864095e+001
1.945283e+003,2.832610e+001
1.946247e+003,2.879031e+001
1.947211e+003,2.979736e+001
1.948175e+003,3.128433e+001
1.949140e+003,3.137444e+001
1.950104e+003,2.814473e+001
1.951068e+003,2.464326e+001
1.952032e+003,2.518277e+001
1.952997e+003,2.811308e+001
1.953961e+003,2.758495e+001
1.954925e+003,2.293974e+001
1.955889e+003,2.162784e+001
1.956854e+003,2.679970e+001
1.957818e+003,2.979335e+001
1.958782e+003,2.954254e+001
1.959746e+003,2.863089e+001
1.960710e+003,2.570308e+001
1.961675e+003,2.276799e+001
1.962639e+003,2.180579e+001
1.963603e+003,2.255124e+001
1.964567e+003,2.471873e+001
1.965532e+003,2.761743e+001
1.966496e+003,2.921858e+001
1.967460e+003,2.884340e+001
1.968424e+003,2.860861e+001
1.969389e+003,3.101900e+001
1.970353e+003,3.243263e+001
1.971317e+003,2.849721e+001
1.972281e+003,2.312347e+001
1.973245e+003,2.148991e+001
1.974210e+003,2.276149e+001
1.975174e+003,2.419341e+001
1.976138e+003,2.509763e+001
1.977102e+003,2.581561e+001
1.978067e+003,2.633955e+001
1.979031e+003,2.648660e+001
1.979995e+003,2.632347e+001
1.980959e+003,2.567639e+001
1.981924e+003,2.391827e+001
1.982888e+003,2.168092e+001
1.983852e+003,2.167017e+001
1.984816e+003,2.370294e+001
1.985781e+003,2.599866e+001
1.986745e+003,2.930858e+001
1.987709e+003,3.035446e+001
1.988673e+003,2.648218e+001
1.989637e+003,2.241020e+001
1.990602e+003,2.154091e+001
1.991566e+003,2.222710e+001
1.992530e+003,2.292816e+001
1.993494e+003,2.411934e+001
1.994459e+003,2.501445e+001
1.995423e+003,2.484648e+001
1.996387e+003,2.519360e+001
1.997351e+003,2.629840e+001
1.998316e+003,2.695367e+001
1.999280e+003,2.770319e+001
2.000244e+003,2.834453e+001
2.001208e+003,2.827481e+001
2.002172e+003,2.819221e+001
2.003137e+003,2.834027e+001
2.004101e+003,2.862204e+001
2.005065e+003,2.966455e+001
2.006029e+003,3.144357e+001
2.006994e+003,3.207054e+001
2.007958e+003,3.014589e+001
2.008922e+003,2.827609e+001
2.009886e+003,3.002792e+001
2.010851e+003,3.239897e+001
2.011815e+003,3.072498e+001
2.012779e+003,2.781934e+001
2.013743e+003,2.922655e+001
2.014708e+003,3.291362e+001
2.015672e+003,3.235245e+001
2.016636e+003,2.756032e+001
2.017600e+003,2.490550e+001
2.018564e+003,2.690952e+001
2.019529e+003,2.915955e+001
2.020493e+003,2.780954e+001
2.021457e+003,2.546844e+001
2.022421e+003,2.719965e+001
2.023386e+003,3.144705e+001
2.024350e+003,2.995305e+001
2.025314e+003,2.302696e+001
2.026278e+003,2.037810e+001
2.027243e+003,2.366045e+001
2.028207e+003,2.700432e+001
2.029171e+003,2.840817e+001
2.030135e+003,2.845645e+001
2.031099e+003,2.717029e+001
2.032064e+003,2.559581e+001
2.033028e+003,2.519498e+001
2.033992e+003,2.538525e+001
2.034956e+003,2.595969e+001
2.035921e+003,2.860851e+001
2.036885e+003,2.990015e+001
2.037849e+003,2.844583e+001
2.038813e+003,2.849583e+001
2.039778e+003,2.972148e+001
2.040742e+003,2.992796e+001
2.041706e+003,2.937108e+001
2.042670e+003,2.864305e+001
2.043635e+003,2.734196e+001
2.044599e+003,2.625783e+001
2.045563e+003,2.712598e+001
2.046527e+003,2.981291e+001
2.047491e+003,3.205600e+001
2.048456e+003,3.384802e+001
2.049420e+003,3.441745e+001
2.050384e+003,3.113933e+001
2.051348e+003,2.802034e+001
2.052313e+003,2.799448e+001
2.053277e+003,2.881619e+001
2.054241e+003,2.905913e+001
2.055205e+003,2.908714e+001
2.056170e+003,2.846513e+001
2.057134e+003,2.721245e+001
2.058098e+003,2.706334e+001
2.059062e+003,2.852309e+001
2.060027e+003,2.884450e+001
2.060991e+003,2.601720e+001
2.061955e+003,2.354494e+001
2.062919e+003,2.504224e+001
2.063884e+003,2.788217e+001
2.064848e+003,3.015013e+001
2.065812e+003,3.177193e+001
2.066776e+003,3.096042e+001
2.067740e+003,2.825705e+001
2.068705e+003,2.645636e+001
2.069669e+003,2.615802e+001
2.070633e+003,2.648724e+001
2.071597e+003,2.680884e+001
2.072562e+003,2.611040e+001
2.073526e+003,2.392924e+001
2.074490e+003,2.204367e+001
2.075454e+003,2.214282e+001
2.076418e+003,2.349620e+001
2.077383e+003,2.564125e+001
2.078347e+003,2.774228e+001
2.079311e+003,2.639253e+001
2.080275e+003,2.262753e+001
2.081240e+003,2.213579e+001
2.082204e+003,2.591650e+001
2.083168e+003,2.802539e+001
2.084132e+003,2.441870e+001
2.085096e+003,1.970454e+001
2.086061e+003,2.024446e+001
2.087025e+003,2.436066e+001
2.087989e+003,2.586023e+001
2.088953e+003,2.468600e+001
2.089918e+003,2.325978e+001
2.090882e+003,2.122931e+001
2.091846e+003,2.034000e+001
2.092810e+003,2.129352e+001
2.093775e+003,2.196127e+001
2.094739e+003,2.098405e+001
2.095703e+003,2.023486e+001
2.096667e+003,2.139247e+001
2.097632e+003,2.316208e+001
2.098596e+003,2.404434e+001
2.099560e+003,2.457474e+001
2.100524e+003,2.524081e+001
2.101489e+003,2.532625e+001
2.102453e+003,2.505769e+001
2.103417e+003,2.435962e+001
2.104381e+003,2.435580e+001
2.105345e+003,2.710384e+001
2.106310e+003,2.816832e+001
2.107274e+003,2.389821e+001
2.108238e+003,1.999083e+001
2.109202e+003,2.089857e+001
2.110167e+003,2.368544e+001
2.111131e+003,2.422032e+001
2.112095e+003,2.255809e+001
2.113059e+003,2.114799e+001
2.114023e+003,2.142749e+001
2.114988e+003,2.266565e+001
2.115952e+003,2.433623e+001
2.116916e+003,2.400060e+001
2.117880e+003,1.971542e+001
2.118845e+003,1.576031e+001
2.119809e+003,1.507164e+001
2.120773e+003,1.678023e+001
2.121737e+003,1.989812e+001
2.122702e+003,2.307478e+001
2.123666e+003,2.540483e+001
2.124630e+003,2.642094e+001
2.125594e+003,2.532161e+001
2.126559e+003,2.202565e+001
2.127523e+003,1.894681e+001
2.128487e+003,1.686465e+001
2.129451e+003,1.655258e+001
2.130416e+003,1.900656e+001
2.131380e+003,2.174562e+001
2.132344e+003,2.327557e+001
2.133308e+003,2.393657e+001
2.134272e+003,2.387094e+001
2.135237e+003,2.300903e+001
2.136201e+003,2.154111e+001
2.137165e+003,1.990656e+001
2.138129e+003,1.859383e+001
2.139094e+003,1.789433e+001
2.140058e+003,1.763519e+001
2.141022e+003,1.728711e+001
2.141986e+003,1.654518e+001
2.142950e+003,1.513362e+001
2.143915e+003,1.409808e+001
2.144879e+003,1.489967e+001
2.145843e+003,1.603357e+001
2.146807e+003,1.498601e+001
2.147772e+003,1.333072e+001
2.148736e+003,1.474164e+001
2.149700e+003,1.871158e+001
2.150664e+003,2.127547e+001
2.151629e+003,2.089421e+001
2.152593e+003,1.922015e+001
2.153557e+003,1.745914e+001
2.154521e+003,1.617752e+001
2.155486e+003,1.562852e+001
2.156450e+003,1.512915e+001
2.157414e+003,1.367706e+001
2.158378e+003,1.237335e+001
2.159343e+003,1.370947e+001
2.160307e+003,1.688756e+001
2.161271e+003,1.904984e+001
2.162235e+003,1.942677e+001
2.163199e+003,1.876776e+001
2.164164e+003,1.762637e+001
2.165128e+003,1.656183e+001
2.166092e+003,1.605899e+001
2.167056e+003,1.614995e+001
2.168021e+003,1.656166e+001
2.168985e+003,1.670621e+001
2.169949e+003,1.631174e+001
2.170913e+003,1.579846e+001
2.171877e+003,1.587846e+001
2.172842e+003,1.666374e+001
2.173806e+003,1.758568e+001
2.174770e+003,1.818236e+001
2.175734e+003,1.811879e+001
2.176699e+003,1.723097e+001
2.177663e+003,1.566154e+001
2.178627e+003,1.360060e+001
2.179591e+003,1.198700e+001
2.180556e+003,1.208182e+001
2.181520e+003,1.289275e+001
2.182484e+003,1.315419e+001
2.183448e+003,1.312320e+001
2.184413e+003,1.259044e+001
2.185377e+003,1.162950e+001
2.186341e+003,1.066789e+001
2.187305e+003,9.700500e+000
2.188270e+003,8.638046e+000
2.189234e+003,7.697250e+000
2.190198e+003,7.195847e+000
2.191162e+003,6.874649e+000
2.192126e+003,6.556320e+000
2.193091e+003,7.005539e+000
2.194055e+003,8.032532e+000
2.195019e+003,9.091827e+000
2.195983e+003,1.019489e+001
2.196948e+003,1.009816e+001
2.197912e+003,9.136993e+000
2.198876e+003,9.423828e+000
2.199840e+003,1.085571e+001
2.200804e+003,1.145026e+001
2.201769e+003,1.050665e+001
2.202733e+003,9.440430e+000
2.203697e+003,9.579086e+000
2.204661e+003,1.015337e+001
2.205626e+003,1.004874e+001
2.206590e+003,9.312561e+000
2.207554e+003,6.873215e+000
2.208518e+003,3.468826e+000
2.209483e+003,2.466721e+000
2.210447e+003,3.705887e+000
2.211411e+003,5.620880e+000
2.212375e+003,7.515060e+000
2.213340e+003,7.821777e+000
2.214304e+003,6.324844e+000
2.215268e+003,4.827103e+000
2.216232e+003,4.138138e+000
2.217197e+003,3.856339e+000
2.218161e+003,4.329346e+000
2.219125e+003,4.929138e+000
2.220089e+003,3.987473e+000
2.221053e+003,2.929886e+000
2.222018e+003,3.632629e+000
2.222982e+003,5.248505e+000
2.223946e+003,8.162292e+000
2.224910e+003,1.194626e+001
2.225875e+003,1.333904e+001
2.226839e+003,1.162201e+001
2.227803e+003,8.859650e+000
2.228767e+003,6.125153e+000
2.229731e+003,4.205048e+000
2.230696e+003,4.030014e+000
2.231660e+003,4.960846e+000
2.232624e+003,7.514542e+000
2.233588e+003,1.041341e+001
2.234553e+003,9.755554e+000
2.235517e+003,7.543549e+000
2.236481e+003,8.231415e+000
2.237445e+003,1.064148e+001
2.238410e+003,1.163850e+001
2.239374e+003,1.114148e+001
2.240338e+003,1.042891e+001
2.241302e+003,9.906967e+000
2.242267e+003,9.328049e+000
2.243231e+003,8.481857e+000
2.244195e+003,8.199478e+000
2.245159e+003,9.754639e+000
2.246124e+003,1.137738e+001
2.247088e+003,1.114325e+001
2.248052e+003,9.603989e+000
2.249016e+003,7.728363e+000
2.249980e+003,5.765396e+000
2.250945e+003,3.090820e+000
2.251909e+003,5.709381e-001
2.252873e+003,0.000000e+000
2.253837e+003,1.410187e+000
2.254802e+003,4.098373e+000
2.255766e+003,8.219131e+000
2.256730e+003,1.080049e+001
2.257694e+003,7.559052e+000
2.258658e+003,4.493088e+000
2.259623e+003,7.542648e+000
2.260587e+003,1.160629e+001
2.261551e+003,1.230746e+001
2.262515e+003,1.098219e+001
2.263480e+003,9.168579e+000
2.264444e+003,7.434021e+000
2.265408e+003,5.044220e+000
2.266372e+003,2.412292e+000
2.267337e+003,2.817917e+000
2.268301e+003,7.304382e+000
2.269265e+003,1.033632e+001
2.270229e+003,9.371017e+000
2.271194e+003,9.978882e+000
2.272158e+003,1.487708e+001
2.273122e+003,1.831685e+001
2.274086e+003,1.712727e+001
2.275051e+003,1.422914e+001
2.276015e+003,1.073817e+001
2.276979e+003,8.864807e+000
2.277943e+003,1.256181e+001
2.278907e+003,1.862987e+001
2.279872e+003,1.857259e+001
2.280836e+003,1.153062e+001
2.281800e+003,6.275970e+000
2.282764e+003,4.742661e+000
2.283729e+003,5.715759e+000
2.284693e+003,1.308994e+001
2.285657e+003,1.775493e+001
2.286621e+003,1.313457e+001
2.287585e+003,8.221069e+000
2.288550e+003,9.384033e+000
2.289514e+003,1.160040e+001
2.290478e+003,9.728577e+000
2.291442e+003,6.369125e+000
2.292407e+003,5.449799e+000
2.293371e+003,6.379425e+000
2.294335e+003,7.616089e+000
2.295299e+003,9.192047e+000
2.296264e+003,1.059901e+001
2.297228e+003,1.220340e+001
2.298192e+003,1.366151e+001
2.299156e+003,1.584525e+001
2.300121e+003,1.697470e+001
2.301085e+003,1.477563e+001
2.302049e+003,1.333307e+001
2.303013e+003,1.592511e+001
2.303978e+003,1.957813e+001
2.304942e+003,2.071753e+001
2.305906e+003,2.041289e+001
2.306870e+003,2.166240e+001
2.307834e+003,2.411372e+001
2.308799e+003,2.419281e+001
2.309763e+003,2.204210e+001
2.310727e+003,2.048042e+001
2.311691e+003,1.908237e+001
2.312656e+003,2.068365e+001
2.313620e+003,2.595906e+001
2.314584e+003,2.919559e+001
2.315548e+003,2.828082e+001
2.316512e+003,2.632446e+001
2.317477e+003,2.579041e+001
2.318441e+003,2.618365e+001
2.319405e+003,2.607257e+001
2.320369e+003,2.604503e+001
2.321334e+003,2.775755e+001
2.322298e+003,3.021866e+001
2.323262e+003,3.256616e+001
2.324226e+003,3.559038e+001
2.325191e+003,3.996266e+001
2.326155e+003,4.438736e+001
2.327119e+003,4.494069e+001
2.328083e+003,4.155460e+001
2.329048e+003,3.837692e+001
2.330012e+003,3.755725e+001
2.330976e+003,3.793304e+001
2.331940e+003,3.789532e+001
2.332905e+003,3.804115e+001
2.333869e+003,4.080945e+001
2.334833e+003,4.392326e+001
2.335797e+003,4.475700e+001
2.336761e+003,4.488388e+001
2.337726e+003,4.506195e+001
2.338690e+003,4.490527e+001
2.339654e+003,4.410909e+001
2.340618e+003,4.388499e+001
2.341583e+003,4.659785e+001
2.342547e+003,5.178574e+001
2.343511e+003,5.578886e+001
2.344475e+003,5.727571e+001
2.345439e+003,5.819057e+001
2.346404e+003,5.901906e+001
2.347368e+003,5.938828e+001
2.348332e+003,5.923592e+001
2.349296e+003,6.001563e+001
2.350261e+003,6.305774e+001
2.351225e+003,6.654057e+001
2.352189e+003,6.843703e+001
2.353153e+003,6.963680e+001
2.354118e+003,7.107878e+001
2.355082e+003,7.280696e+001
2.356046e+003,7.592058e+001
2.357010e+003,8.064655e+001
2.357975e+003,8.276382e+001
2.358939e+003,8.067850e+001
2.359903e+003,8.224509e+001
2.360867e+003,8.821544e+001
2.361832e+003,9.153532e+001
2.362796e+003,9.178398e+001
2.363760e+003,9.270995e+001
2.364724e+003,9.588339e+001
2.365688e+003,9.969057e+001
2.366653e+003,1.020516e+002
2.367617e+003,1.042639e+002
2.368581e+003,1.088713e+002
2.369545e+003,1.136430e+002
2.370510e+003,1.129156e+002
2.371474e+003,1.091979e+002
2.372438e+003,1.123269e+002
2.373402e+003,1.202045e+002
2.374366e+003,1.241622e+002
2.375331e+003,1.246733e+002
2.376295e+003,1.256268e+002
2.377259e+003,1.275417e+002
2.378223e+003,1.292401e+002
2.379188e+003,1.303152e+002
2.380152e+003,1.312456e+002
2.381116e+003,1.323938e+002
2.382080e+003,1.336702e+002
2.383045e+003,1.350506e+002
2.384009e+003,1.356388e+002
2.384973e+003,1.340849e+002
2.385937e+003,1.324609e+002
2.386902e+003,1.323356e+002
2.387866e+003,1.344022e+002
2.388830e+003,1.395142e+002
2.389794e+003,1.451612e+002
2.390759e+003,1.489585e+002
2.391723e+003,1.506921e+002
2.392687e+003,1.508678e+002
2.393651e+003,1.503103e+002
2.394615e+003,1.499237e+002
2.395580e+003,1.492062e+002
2.396544e+003,1.489193e+002
2.397508e+003,1.496096e+002
2.398472e+003,1.497252e+002
2.399437e+003,1.493002e+002
2.400401e+003,1.490733e+002
2.401365e+003,1.484869e+002
2.402329e+003,1.486191e+002
2.403293e+003,1.503620e+002
2.404258e+003,1.524412e+002
2.405222e+003,1.539544e+002
2.406186e+003,1.551871e+002
2.407150e+003,1.557127e+002
2.408115e+003,1.557361e+002
2.409079e+003,1.584267e+002
2.410043e+003,1.634898e+002
2.411007e+003,1.648064e+002
2.411972e+003,1.628186e+002
2.412936e+003,1.631519e+002
2.413900e+003,1.657315e+002
2.414864e+003,1.661189e+002
2.415829e+003,1.638815e+002
2.416793e+003,1.623460e+002
2.417757e+003,1.628582e+002
2.418721e+003,1.647283e+002
2.419686e+003,1.679647e+002
2.420650e+003,1.712138e+002
2.421614e+003,1.727106e+002
2.422578e+003,1.734556e+002
2.423542e+003,1.743293e+002
2.424507e+003,1.748570e+002
2.425471e+003,1.755730e+002
2.426435e+003,1.758380e+002
2.427399e+003,1.731334e+002
2.428364e+003,1.686198e+002
2.429328e+003,1.656707e+002
2.430292e+003,1.652228e+002
2.431256e+003,1.666712e+002
2.432220e+003,1.700444e+002
2.433185e+003,1.723705e+002
2.434149e+003,1.725687e+002
2.435113e+003,1.715845e+002
2.436077e+003,1.692031e+002
2.437042e+003,1.668640e+002
2.438006e+003,1.645211e+002
2.438970e+003,1.630547e+002
2.439934e+003,1.630860e+002
2.440899e+003,1.635709e+002
2.441863e+003,1.640622e+002
2.442827e+003,1.641849e+002
2.443791e+003,1.627390e+002
2.444756e+003,1.598996e+002
2.445720e+003,1.569559e+002
2.446684e+003,1.541415e+002
2.447648e+003,1.527576e+002
2.448613e+003,1.523668e+002
2.449577e+003,1.509310e+002
2.450541e+003,1.486138e+002
2.451505e+003,1.463284e+002
2.452469e+003,1.445688e+002
2.453434e+003,1.438954e+002
2.454398e+003,1.436533e+002
2.455362e+003,1.426843e+002
2.456326e+003,1.417744e+002
2.457291e+003,1.409980e+002
2.458255e+003,1.389476e+002
2.459219e+003,1.367556e+002
2.460183e+003,1.326215e+002
2.461147e+003,1.300254e+002
2.462112e+003,1.348637e+002
2.463076e+003,1.403388e+002
2.464040e+003,1.403326e+002
2.465004e+003,1.369457e+002
2.465969e+003,1.329464e+002
2.466933e+003,1.297244e+002
2.467897e+003,1.284257e+002
2.468861e+003,1.281218e+002
2.469826e+003,1.270711e+002
2.470790e+003,1.254260e+002
2.471754e+003,1.237626e+002
2.472718e+003,1.223849e+002
2.473683e+003,1.237698e+002
2.474647e+003,1.272109e+002
2.475611e+003,1.263106e+002
2.476575e+003,1.206890e+002
2.477540e+003,1.183915e+002
2.478504e+003,1.221216e+002
2.479468e+003,1.249057e+002
2.480432e+003,1.220887e+002
2.481396e+003,1.175537e+002
2.482361e+003,1.149548e+002
2.483325e+003,1.139166e+002
2.484289e+003,1.132688e+002
2.485253e+003,1.128107e+002
2.486218e+003,1.130727e+002
2.487182e+003,1.134308e+002
2.488146e+003,1.135815e+002
2.489110e+003,1.139179e+002
2.490074e+003,1.155024e+002
2.491039e+003,1.175828e+002
2.492003e+003,1.167827e+002
2.492967e+003,1.120964e+002
2.493931e+003,1.088139e+002
2.494896e+003,1.082431e+002
2.495860e+003,1.083252e+002
2.496824e+003,1.097816e+002
2.497788e+003,1.097357e+002
2.498753e+003,1.070298e+002
2.499717e+003,1.051543e+002
2.500681e+003,1.053069e+002
2.501645e+003,1.063578e+002
2.502610e+003,1.074972e+002
2.503574e+003,1.071163e+002
2.504538e+003,1.042639e+002
2.505502e+003,1.017587e+002
2.506467e+003,1.025218e+002
2.507431e+003,1.040096e+002
2.508395e+003,1.030279e+002
2.509359e+003,1.017885e+002
2.510323e+003,1.030311e+002
2.511288e+003,1.053467e+002
2.512252e+003,1.074718e+002
2.513216e+003,1.088639e+002
2.514180e+003,1.084649e+002
2.515145e+003,1.071785e+002
2.516109e+003,1.077306e+002
2.517073e+003,1.100870e+002
2.518037e+003,1.099872e+002
2.519001e+003,1.058236e+002
2.519966e+003,1.036468e+002
2.520930e+003,1.040102e+002
2.521894e+003,1.050064e+002
2.522858e+003,1.068849e+002
2.523823e+003,1.075629e+002
2.524787e+003,1.062671e+002
2.525751e+003,1.057326e+002
2.526715e+003,1.072871e+002
2.527680e+003,1.080785e+002
2.528644e+003,1.060689e+002
2.529608e+003,1.032263e+002
2.530572e+003,1.006113e+002
2.531537e+003,9.918793e+001
2.532501e+003,1.028165e+002
2.533465e+003,1.073812e+002
2.534429e+003,1.072062e+002
2.535394e+003,1.057319e+002
2.536358e+003,1.074541e+002
2.537322e+003,1.095639e+002
2.538286e+003,1.068703e+002
2.539250e+003,1.019444e+002
2.540215e+003,1.020994e+002
2.541179e+003,1.069795e+002
2.542143e+003,1.078133e+002
2.543107e+003,1.042067e+002
2.544072e+003,1.034629e+002
2.545036e+003,1.059054e+002
2.546000e+003,1.063701e+002
2.546964e+003,1.040490e+002
2.547928e+003,1.026739e+002
2.548893e+003,1.029868e+002
2.549857e+003,1.041079e+002
2.550821e+003,1.057928e+002
2.551785e+003,1.065957e+002
2.552750e+003,1.055932e+002
2.553714e+003,1.036530e+002
2.554678e+003,1.014361e+002
2.555642e+003,9.987676e+001
2.556607e+003,9.961526e+001
2.557571e+003,9.925276e+001
2.558535e+003,9.766032e+001
2.559499e+003,9.594989e+001
2.560464e+003,9.596220e+001
2.561428e+003,9.705962e+001
2.562392e+003,9.839197e+001
2.563356e+003,9.861257e+001
2.564321e+003,9.503048e+001
2.565285e+003,8.988692e+001
2.566249e+003,9.031852e+001
2.567213e+003,9.566799e+001
2.568177e+003,9.611335e+001
2.569142e+003,9.158564e+001
2.570106e+003,8.850816e+001
2.571070e+003,8.741476e+001
2.572034e+003,8.621424e+001
2.572999e+003,8.479380e+001
2.573963e+003,8.354541e+001
2.574927e+003,8.237937e+001
2.575891e+003,8.284837e+001
2.576855e+003,8.519440e+001
2.577820e+003,8.607821e+001
2.578784e+003,8.439993e+001
2.579748e+003,8.269680e+001
2.580712e+003,8.192027e+001
2.581677e+003,8.171200e+001
2.582641e+003,8.149976e+001
2.583605e+003,8.052760e+001
2.584569e+003,7.825420e+001
2.585534e+003,7.648161e+001
2.586498e+003,7.627083e+001
2.587462e+003,7.715141e+001
2.588426e+003,7.861471e+001
2.589391e+003,7.993961e+001
2.590355e+003,8.047381e+001
2.591319e+003,7.984463e+001
2.592283e+003,7.515408e+001
2.593248e+003,6.874619e+001
2.594212e+003,6.809032e+001
2.595176e+003,7.096501e+001
2.596140e+003,7.293692e+001
2.597104e+003,7.345664e+001
2.598069e+003,7.196615e+001
2.599033e+003,6.932983e+001
2.599997e+003,6.820910e+001
2.600961e+003,6.898916e+001
2.601926e+003,6.878100e+001
2.602890e+003,6.625613e+001
2.603854e+003,6.563158e+001
2.604818e+003,6.812708e+001
2.605782e+003,6.909580e+001
2.606747e+003,6.878185e+001
2.607711e+003,6.688994e+001
2.608675e+003,6.292523e+001
2.609639e+003,6.168396e+001
2.610604e+003,6.493773e+001
2.611568e+003,6.754632e+001
2.612532e+003,6.635014e+001
2.613496e+003,6.495601e+001
2.614461e+003,6.651960e+001
2.615425e+003,6.804124e+001
2.616389e+003,6.605598e+001
2.617353e+003,6.390832e+001
2.618318e+003,6.535664e+001
2.619282e+003,6.706966e+001
2.620246e+003,6.725787e+001
2.621210e+003,6.688300e+001
2.622175e+003,6.448756e+001
2.623139e+003,6.181618e+001
2.624103e+003,6.170247e+001
2.625067e+003,6.249555e+001
2.626031e+003,6.210585e+001
2.626996e+003,6.178137e+001
2.627960e+003,6.046305e+001
2.628924e+003,5.785623e+001
2.629888e+003,5.862482e+001
2.630853e+003,6.113907e+001
2.631817e+003,5.998128e+001
2.632781e+003,5.760013e+001
2.633745e+003,5.854852e+001
2.634709e+003,6.114590e+001
2.635674e+003,6.152750e+001
2.636638e+003,5.935422e+001
2.637602e+003,5.715490e+001
2.638566e+003,5.689738e+001
2.639531e+003,5.650993e+001
2.640495e+003,5.309789e+001
2.641459e+003,5.086447e+001
2.642423e+003,5.062357e+001
2.643388e+003,5.146704e+001
2.644352e+003,5.305546e+001
2.645316e+003,5.424160e+001
2.646280e+003,5.454021e+001
2.647245e+003,5.454371e+001
2.648209e+003,5.540739e+001
2.649173e+003,5.684362e+001
2.650137e+003,5.755029e+001
2.651102e+003,5.757662e+001
2.652066e+003,5.558553e+001
2.653030e+003,5.289614e+001
2.653994e+003,5.249039e+001
2.654958e+003,5.289681e+001
2.655923e+003,5.298199e+001
2.656887e+003,5.328784e+001
2.657851e+003,5.348679e+001
2.658815e+003,5.289760e+001
2.659780e+003,5.140210e+001
2.660744e+003,4.980251e+001
2.661708e+003,4.932860e+001
2.662672e+003,4.984048e+001
2.663636e+003,5.073264e+001
2.664601e+003,5.150388e+001
2.665565e+003,5.007282e+001
2.666529e+003,4.791279e+001
2.667493e+003,4.849524e+001
2.668458e+003,5.070924e+001
2.669422e+003,5.192401e+001
2.670386e+003,5.121196e+001
2.671350e+003,4.838634e+001
2.672315e+003,4.512630e+001
2.673279e+003,4.543847e+001
2.674243e+003,4.920714e+001
2.675207e+003,4.982386e+001
2.676172e+003,4.681015e+001
2.677136e+003,4.402650e+001
2.678100e+003,4.193452e+001
2.679064e+003,4.336459e+001
2.680029e+003,4.735149e+001
2.680993e+003,4.838921e+001
2.681957e+003,4.610692e+001
2.682921e+003,4.377393e+001
2.683885e+003,4.217669e+001
2.684850e+003,4.126640e+001
2.685814e+003,4.264634e+001
2.686778e+003,4.341817e+001
2.687742e+003,3.922044e+001
2.688707e+003,3.762852e+001
2.689671e+003,4.258423e+001
2.690635e+003,4.410909e+001
2.691599e+003,3.957104e+001
2.692563e+003,3.584565e+001
2.693528e+003,3.609359e+001
2.694492e+003,3.676176e+001
2.695456e+003,3.520403e+001
2.696420e+003,3.329759e+001
2.697385e+003,3.286364e+001
2.698349e+003,3.368047e+001
2.699313e+003,3.768707e+001
2.700277e+003,4.071091e+001
2.701242e+003,3.598823e+001
2.702206e+003,3.026721e+001
2.703170e+003,2.986044e+001
2.704134e+003,3.138281e+001
2.705099e+003,3.282383e+001
2.706063e+003,3.363036e+001
2.707027e+003,3.254292e+001
2.707991e+003,3.035825e+001
2.708956e+003,2.825688e+001
2.709920e+003,2.630949e+001
2.710884e+003,2.743469e+001
2.711848e+003,3.047839e+001
2.712813e+003,3.051042e+001
2.713777e+003,2.977068e+001
2.714741e+003,3.205686e+001
2.715705e+003,3.404561e+001
2.716669e+003,3.146998e+001
2.717634e+003,2.695408e+001
2.718598e+003,2.559912e+001
2.719562e+003,2.801341e+001
2.720526e+003,3.013257e+001
2.721490e+003,2.986958e+001
2.722455e+003,2.840367e+001
2.723419e+003,2.696343e+001
2.724383e+003,2.697552e+001
2.725347e+003,2.818104e+001
2.726312e+003,2.774879e+001
2.727276e+003,2.519866e+001
2.728240e+003,2.294781e+001
2.729204e+003,2.283519e+001
2.730169e+003,2.523116e+001
2.731133e+003,2.850075e+001
2.732097e+003,2.993065e+001
2.733061e+003,2.910219e+001
2.734026e+003,2.666711e+001
2.734990e+003,2.375160e+001
2.735954e+003,2.378476e+001
2.736918e+003,2.594958e+001
2.737883e+003,2.759980e+001
2.738847e+003,2.781538e+001
2.739811e+003,2.679446e+001
2.740775e+003,2.502053e+001
2.741740e+003,2.281550e+001
2.742704e+003,2.104707e+001
2.743668e+003,2.072083e+001
2.744632e+003,2.162376e+001
2.745596e+003,2.278946e+001
2.746561e+003,2.293506e+001
2.747525e+003,2.197134e+001
2.748489e+003,2.235390e+001
2.749453e+003,2.096902e+001
2.750417e+003,1.637389e+001
2.751382e+003,1.433290e+001
2.752346e+003,1.689754e+001
2.753310e+003,1.981857e+001
2.754274e+003,2.018083e+001
2.755239e+003,2.011112e+001
2.756203e+003,2.218749e+001
2.757167e+003,2.408469e+001
2.758131e+003,2.300271e+001
2.759096e+003,2.144546e+001
2.760060e+003,2.174005e+001
2.761024e+003,2.176321e+001
2.761988e+003,1.878841e+001
2.762953e+003,1.719108e+001
2.763917e+003,2.000458e+001
2.764881e+003,2.335953e+001
2.765845e+003,2.354253e+001
2.766810e+003,2.228869e+001
2.767774e+003,2.256606e+001
2.768738e+003,2.346248e+001
2.769702e+003,2.238813e+001
2.770667e+003,2.145681e+001
2.771631e+003,2.257618e+001
2.772595e+003,2.296136e+001
2.773559e+003,2.163567e+001
2.774523e+003,2.013620e+001
2.775488e+003,1.972186e+001
2.776452e+003,2.080809e+001
2.777416e+003,2.134528e+001
2.778380e+003,2.008420e+001
2.779344e+003,2.249384e+001
2.780309e+003,2.797823e+001
2.781273e+003,2.564846e+001
2.782237e+003,2.140739e+001
2.783201e+003,2.416124e+001
2.784166e+003,2.684373e+001
2.785130e+003,2.344402e+001
2.786094e+003,1.821855e+001
2.787058e+003,1.632687e+001
2.788023e+003,1.773422e+001
2.788987e+003,2.000366e+001
2.789951e+003,2.204343e+001
2.790915e+003,2.314431e+001
2.791880e+003,2.342271e+001
2.792844e+003,2.111732e+001
2.793808e+003,1.806273e+001
2.794772e+003,1.934740e+001
2.795737e+003,2.188935e+001
2.796701e+003,2.222165e+001
2.797665e+003,2.165372e+001
2.798629e+003,2.196304e+001
2.799594e+003,2.336423e+001
2.800558e+003,2.432003e+001
2.801522e+003,2.439967e+001
2.802486e+003,2.465357e+001
2.803450e+003,2.405034e+001
2.804415e+003,2.095229e+001
2.805379e+003,1.642731e+001
2.806343e+003,1.670828e+001
2.807307e+003,2.185772e+001
2.808271e+003,2.308182e+001
2.809236e+003,1.971257e+001
2.810200e+003,2.076794e+001
2.811164e+003,2.642946e+001
2.812128e+003,2.692097e+001
2.813093e+003,2.150620e+001
2.814057e+003,2.081302e+001
2.815021e+003,2.299367e+001
2.815985e+003,2.245077e+001
2.816950e+003,2.167389e+001
2.817914e+003,2.023362e+001
2.818878e+003,1.791122e+001
2.819842e+003,1.916797e+001
2.820807e+003,2.334432e+001
2.821771e+003,2.390479e+001
2.822735e+003,2.007809e+001
2.823699e+003,1.865672e+001
2.824664e+003,2.206831e+001
2.825628e+003,2.252241e+001
2.826592e+003,1.894227e+001
2.827556e+003,1.894693e+001
2.828521e+003,2.142171e+001
2.829485e+003,2.160737e+001
2.830449e+003,2.033913e+001
2.831413e+003,1.893982e+001
2.832377e+003,1.765031e+001
2.833342e+003,1.925784e+001
2.834306e+003,2.355023e+001
2.835270e+003,2.482973e+001
2.836234e+003,2.134101e+001
2.837198e+003,1.841848e+001
2.838163e+003,1.634342e+001
2.839127e+003,1.733131e+001
2.840091e+003,2.178077e+001
2.841055e+003,2.211665e+001
2.842020e+003,1.806296e+001
2.842984e+003,1.651321e+001
2.843948e+003,1.820851e+001
2.844912e+003,1.911544e+001
2.845877e+003,1.853497e+001
2.846841e+003,1.864329e+001
2.847805e+003,2.000241e+001
2.848769e+003,2.121191e+001
2.849734e+003,2.195602e+001
2.850698e+003,2.206446e+001
2.851662e+003,2.148703e+001
2.852626e+003,2.061095e+001
2.853591e+003,1.992476e+001
2.854555e+003,1.928157e+001
2.855519e+003,1.853384e+001
2.856483e+003,1.863859e+001
2.857448e+003,1.949997e+001
2.858412e+003,1.969833e+001
2.859376e+003,1.943411e+001
2.860340e+003,1.890955e+001
2.861304e+003,1.694414e+001
2.862269e+003,1.747527e+001
2.863233e+003,2.008199e+001
2.864197e+003,2.159501e+001
2.865161e+003,2.268209e+001
2.866125e+003,2.345280e+001
2.867090e+003,2.323248e+001
2.868054e+003,2.133242e+001
2.869018e+003,1.812686e+001
2.869982e+003,1.711083e+001
2.870947e+003,2.084411e+001
2.871911e+003,2.227116e+001
2.872875e+003,1.811139e+001
2.873839e+003,1.655687e+001
2.874804e+003,1.806833e+001
2.875768e+003,2.069986e+001
2.876732e+003,2.379028e+001
2.877696e+003,2.482828e+001
2.878661e+003,2.361720e+001
2.879625e+003,2.101005e+001
2.880589e+003,1.775183e+001
2.881553e+003,1.715177e+001
2.882518e+003,2.072740e+001
2.883482e+003,2.268383e+001
2.884446e+003,2.240950e+001
2.885410e+003,2.258223e+001
2.886375e+003,2.316981e+001
2.887339e+003,2.393520e+001
2.888303e+003,2.486457e+001
2.889267e+003,2.576995e+001
2.890231e+003,2.666955e+001
2.891196e+003,2.810690e+001
2.892160e+003,2.995055e+001
2.893124e+003,3.019310e+001
2.894088e+003,2.822181e+001
2.895052e+003,2.897384e+001
2.896017e+003,3.284961e+001
2.896981e+003,3.289082e+001
2.897945e+003,2.985995e+001
2.898909e+003,3.053056e+001
2.899874e+003,3.415471e+001
2.900838e+003,3.594895e+001
2.901802e+003,3.588464e+001
2.902766e+003,3.704862e+001
2.903731e+003,3.966384e+001
2.904695e+003,4.077608e+001
2.905659e+003,4.027642e+001
2.906623e+003,4.076437e+001
2.907588e+003,4.217012e+001
2.908552e+003,4.369968e+001
2.909516e+003,4.490326e+001
2.910480e+003,4.281333e+001
2.911445e+003,4.002592e+001
2.912409e+003,4.459576e+001
2.913373e+003,5.369374e+001
2.914337e+003,5.611098e+001
2.915302e+003,5.245930e+001
2.916266e+003,5.228133e+001
2.917230e+003,5.515736e+001
2.918194e+003,5.536389e+001
2.919158e+003,5.399701e+001
2.920123e+003,5.698807e+001
2.921087e+003,6.166730e+001
2.922051e+003,6.105755e+001
2.923015e+003,5.797163e+001
2.923979e+003,5.824833e+001
2.924944e+003,6.145247e+001
2.925908e+003,6.518935e+001
2.926872e+003,6.891094e+001
2.927836e+003,7.118201e+001
2.928801e+003,7.210303e+001
2.929765e+003,7.122664e+001
2.930729e+003,6.998689e+001
2.931693e+003,7.250353e+001
2.932658e+003,7.579333e+001
2.933622e+003,7.425566e+001
2.934586e+003,7.149513e+001
2.935550e+003,7.416315e+001
2.936515e+003,7.850358e+001
2.937479e+003,7.910858e+001
2.938443e+003,7.773967e+001
2.939407e+003,7.820807e+001
2.940372e+003,7.981264e+001
2.941336e+003,8.139738e+001
2.942300e+003,8.285631e+001
2.943264e+003,8.347765e+001
2.944229e+003,8.452570e+001
2.945193e+003,8.823273e+001
2.946157e+003,9.179527e+001
2.947121e+003,9.285595e+001
2.948085e+003,9.246439e+001
2.949050e+003,9.158668e+001
2.950014e+003,9.139618e+001
2.950978e+003,9.435733e+001
2.951942e+003,9.801946e+001
2.952906e+003,1.004123e+002
2.953871e+003,1.013085e+002
2.954835e+003,9.896998e+001
2.955799e+003,9.726579e+001
2.956763e+003,9.822947e+001
2.957728e+003,1.003303e+002
2.958692e+003,1.027337e+002
2.959656e+003,1.038950e+002
2.960620e+003,1.021682e+002
2.961585e+003,1.007952e+002
2.962549e+003,1.035227e+002
2.963513e+003,1.065982e+002
2.964477e+003,1.080259e+002
2.965442e+003,1.094788e+002
2.966406e+003,1.118638e+002
2.967370e+003,1.128445e+002
2.968334e+003,1.116036e+002
2.969299e+003,1.105985e+002
2.970263e+003,1.110265e+002
2.971227e+003,1.116545e+002
2.972191e+003,1.116549e+002
2.973156e+003,1.122602e+002
2.974120e+003,1.138083e+002
2.975084e+003,1.167915e+002
2.976048e+003,1.220309e+002
2.977012e+003,1.255273e+002
2.977977e+003,1.266685e+002
2.978941e+003,1.257669e+002
2.979905e+003,1.233399e+002
2.980869e+003,1.211509e+002
2.981833e+003,1.199887e+002
2.982798e+003,1.210928e+002
2.983762e+003,1.257154e+002
2.984726e+003,1.272836e+002
2.985690e+003,1.245987e+002
2.986655e+003,1.229362e+002
2.987619e+003,1.226182e+002
2.988583e+003,1.270744e+002
2.989547e+003,1.343677e+002
2.990512e+003,1.360476e+002
2.991476e+003,1.327543e+002
2.992440e+003,1.315053e+002
2.993404e+003,1.333482e+002
2.994369e+003,1.355805e+002
2.995333e+003,1.380081e+002
2.996297e+003,1.382126e+002
2.997261e+003,1.367343e+002
2.998226e+003,1.369388e+002
2.999190e+003,1.382095e+002
3.000154e+003,1.388530e+002
3.001118e+003,1.392642e+002
3.002083e+003,1.408138e+002
3.003047e+003,1.426142e+002
3.004011e+003,1.424536e+002
3.004975e+003,1.416082e+002
3.005939e+003,1.433882e+002
3.006904e+003,1.464918e+002
3.007868e+003,1.472179e+002
3.008832e+003,1.470681e+002
3.009796e+003,1.486940e+002
3.010760e+003,1.501329e+002
3.011725e+003,1.479682e+002
3.012689e+003,1.464326e+002
3.013653e+003,1.495155e+002
3.014617e+003,1.526689e+002
3.015582e+003,1.510695e+002
3.016546e+003,1.489901e+002
3.017510e+003,1.525292e+002
3.018474e+003,1.569888e+002
3.019439e+003,1.579959e+002
3.020403e+003,1.584341e+002
3.021367e+003,1.600514e+002
3.022331e+003,1.609004e+002
3.023296e+003,1.600584e+002
3.024260e+003,1.607045e+002
3.025224e+003,1.642495e+002
3.026188e+003,1.669524e+002
3.027153e+003,1.663844e+002
3.028117e+003,1.664669e+002
3.029081e+003,1.714792e+002
3.030045e+003,1.730505e+002
3.031010e+003,1.678320e+002
3.031974e+003,1.661587e+002
3.032938e+003,1.692337e+002
3.033902e+003,1.720334e+002
3.034866e+003,1.734613e+002
3.035831e+003,1.739253e+002
3.036795e+003,1.740741e+002
3.037759e+003,1.771166e+002
3.038723e+003,1.843141e+002
3.039688e+003,1.867890e+002
3.040652e+003,1.834872e+002
3.041616e+003,1.820452e+002
3.042580e+003,1.822350e+002
3.043544e+003,1.822408e+002
3.044509e+003,1.823815e+002
3.045473e+003,1.840589e+002
3.046437e+003,1.868293e+002
3.047401e+003,1.897113e+002
3.048366e+003,1.921998e+002
3.049330e+003,1.933546e+002
3.050294e+003,1.933180e+002
3.051258e+003,1.915561e+002
3.052223e+003,1.898618e+002
3.053187e+003,1.937986e+002
3.054151e+003,1.989857e+002
3.055115e+003,1.991985e+002
3.056080e+003,1.984554e+002
3.057044e+003,2.015727e+002
3.058008e+003,2.049147e+002
3.058972e+003,2.052685e+002
3.059937e+003,2.039033e+002
3.060901e+003,2.017361e+002
3.061865e+003,2.007092e+002
3.062829e+003,2.045071e+002
3.063793e+003,2.078933e+002
3.064758e+003,2.075385e+002
3.065722e+003,2.063593e+002
3.066686e+003,2.048906e+002
3.067650e+003,2.043705e+002
3.068615e+003,2.053029e+002
3.069579e+003,2.083688e+002
3.070543e+003,2.137656e+002
3.071507e+003,2.166116e+002
3.072471e+003,2.129960e+002
3.073436e+003,2.114919e+002
3.074400e+003,2.138148e+002
3.075364e+003,2.163074e+002
3.076328e+003,2.186552e+002
3.077293e+003,2.194792e+002
3.078257e+003,2.189267e+002
3.079221e+003,2.177588e+002
3.080185e+003,2.167525e+002
3.081150e+003,2.183805e+002
3.082114e+003,2.224966e+002
3.083078e+003,2.234680e+002
3.084042e+003,2.216605e+002
3.085007e+003,2.227897e+002
3.085971e+003,2.255896e+002
3.086935e+003,2.267953e+002
3.087899e+003,2.266038e+002
3.088864e+003,2.246757e+002
3.089828e+003,2.227693e+002
3.090792e+003,2.231879e+002
3.091756e+003,2.249369e+002
3.092720e+003,2.269215e+002
3.093685e+003,2.285671e+002
3.094649e+003,2.280692e+002
3.095613e+003,2.278492e+002
3.096577e+003,2.323069e+002
3.097542e+003,2.357539e+002
3.098506e+003,2.333063e+002
3.099470e+003,2.305809e+002
3.100434e+003,2.292501e+002
3.101398e+003,2.302733e+002
3.102363e+003,2.339742e+002
3.103327e+003,2.364799e+002
3.104291e+003,2.350804e+002
3.105255e+003,2.344151e+002
3.106220e+003,2.381145e+002
3.107184e+003,2.394932e+002
3.108148e+003,2.378307e+002
3.109112e+003,2.364291e+002
3.110077e+003,2.358731e+002
3.111041e+003,2.375438e+002
3.112005e+003,2.406290e+002
3.112969e+003,2.409868e+002
3.113934e+003,2.385684e+002
3.114898e+003,2.392918e+002
3.115862e+003,2.429865e+002
3.116826e+003,2.450428e+002
3.117791e+003,2.458525e+002
3.118755e+003,2.471245e+002
3.119719e+003,2.487266e+002
3.120683e+003,2.507808e+002
3.121647e+003,2.525345e+002
3.122612e+003,2.521671e+002
3.123576e+003,2.519115e+002
3.124540e+003,2.541289e+002
3.125504e+003,2.572878e+002
3.126469e+003,2.593041e+002
3.127433e+003,2.606858e+002
3.128397e+003,2.625173e+002
3.129361e+003,2.632482e+002
3.130325e+003,2.605298e+002
3.131290e+003,2.588275e+002
3.132254e+003,2.594750e+002
3.133218e+003,2.608952e+002
3.134182e+003,2.624032e+002
3.135147e+003,2.637610e+002
3.136111e+003,2.648471e+002
3.137075e+003,2.658384e+002
3.138039e+003,2.673535e+002
3.139004e+003,2.665394e+002
3.139968e+003,2.628795e+002
3.140932e+003,2.623385e+002
3.141896e+003,2.648367e+002
3.142861e+003,2.687325e+002
3.143825e+003,2.728163e+002
3.144789e+003,2.748845e+002
3.145753e+003,2.751655e+002
3.146718e+003,2.754182e+002
3.147682e+003,2.758538e+002
3.148646e+003,2.772657e+002
3.149610e+003,2.790377e+002
3.150574e+003,2.796121e+002
3.151539e+003,2.793401e+002
3.152503e+003,2.771221e+002
3.153467e+003,2.763887e+002
3.154431e+003,2.807912e+002
3.155396e+003,2.847696e+002
3.156360e+003,2.845226e+002
3.157324e+003,2.842995e+002
3.158288e+003,2.880971e+002
3.159252e+003,2.910309e+002
3.160217e+003,2.869344e+002
3.161181e+003,2.862026e+002
3.162145e+003,2.931967e+002
3.163109e+003,2.950456e+002
3.164074e+003,2.903719e+002
3.165038e+003,2.889525e+002
3.166002e+003,2.923667e+002
3.166966e+003,2.967791e+002
3.167931e+003,3.007001e+002
3.168895e+003,3.008406e+002
3.169859e+003,2.973124e+002
3.170823e+003,2.959333e+002
3.171788e+003,2.964890e+002
3.172752e+003,2.985555e+002
3.173716e+003,3.010093e+002
3.174680e+003,3.009337e+002
3.175645e+003,3.007340e+002
3.176609e+003,3.054387e+002
3.177573e+003,3.099090e+002
3.178537e+003,3.087559e+002
3.179501e+003,3.056685e+002
3.180466e+003,3.056191e+002
3.181430e+003,3.060454e+002
3.182394e+003,3.029297e+002
3.183358e+003,3.020498e+002
3.184323e+003,3.078599e+002
3.185287e+003,3.108196e+002
3.186251e+003,3.087243e+002
3.187215e+003,3.074372e+002
3.188179e+003,3.087207e+002
3.189144e+003,3.091104e+002
3.190108e+003,3.072950e+002
3.191072e+003,3.071732e+002
3.192036e+003,3.096696e+002
3.193001e+003,3.111508e+002
3.193965e+003,3.115947e+002
3.194929e+003,3.096340e+002
3.195893e+003,3.072694e+002
3.196858e+003,3.101317e+002
3.197822e+003,3.150948e+002
3.198786e+003,3.150864e+002
3.199750e+003,3.130479e+002
3.200715e+003,3.130801e+002
3.201679e+003,3.151463e+002
3.202643e+003,3.220787e+002
3.203607e+003,3.270055e+002
3.204572e+003,3.194266e+002
3.205536e+003,3.130861e+002
3.206500e+003,3.153305e+002
3.207464e+003,3.168792e+002
3.208428e+003,3.147961e+002
3.209393e+003,3.139256e+002
3.210357e+003,3.162911e+002
3.211321e+003,3.195099e+002
3.212285e+003,3.228098e+002
3.213250e+003,3.253391e+002
3.214214e+003,3.270719e+002
3.215178e+003,3.283121e+002
3.216142e+003,3.289197e+002
3.217106e+003,3.275175e+002
3.218071e+003,3.253589e+002
3.219035e+003,3.253571e+002
3.219999e+003,3.268767e+002
3.220963e+003,3.277489e+002
3.221928e+003,3.286932e+002
3.222892e+003,3.314662e+002
3.223856e+003,3.343660e+002
3.224820e+003,3.343543e+002
3.225785e+003,3.333337e+002
3.226749e+003,3.322953e+002
3.227713e+003,3.313691e+002
3.228677e+003,3.301302e+002
3.229642e+003,3.324348e+002
3.230606e+003,3.393057e+002
3.231570e+003,3.441709e+002
3.232534e+003,3.439124e+002
3.233499e+003,3.428836e+002
3.234463e+003,3.426311e+002
3.235427e+003,3.400631e+002
3.236391e+003,3.354419e+002
3.237355e+003,3.365356e+002
3.238320e+003,3.412825e+002
3.239284e+003,3.424382e+002
3.240248e+003,3.416080e+002
3.241212e+003,3.446928e+002
3.242177e+003,3.487142e+002
3.243141e+003,3.487737e+002
3.244105e+003,3.469799e+002
3.245069e+003,3.470552e+002
3.246033e+003,3.477179e+002
3.246998e+003,3.474366e+002
3.247962e+003,3.477175e+002
3.248926e+003,3.495592e+002
3.249890e+003,3.505808e+002
3.250855e+003,3.501574e+002
3.251819e+003,3.518468e+002
3.252783e+003,3.566203e+002
3.253747e+003,3.587633e+002
3.254712e+003,3.555000e+002
3.255676e+003,3.556372e+002
3.256640e+003,3.596981e+002
3.257604e+003,3.613474e+002
3.258569e+003,3.614119e+002
3.259533e+003,3.634742e+002
3.260497e+003,3.659751e+002
3.261461e+003,3.647637e+002
3.262426e+003,3.628104e+002
3.263390e+003,3.642179e+002
3.264354e+003,3.668969e+002
3.265318e+003,3.678775e+002
3.266282e+003,3.685065e+002
3.267247e+003,3.712373e+002
3.268211e+003,3.722459e+002
3.269175e+003,3.685011e+002
3.270139e+003,3.670950e+002
3.271104e+003,3.694144e+002
3.272068e+003,3.729312e+002
3.273032e+003,3.764159e+002
3.273996e+003,3.778370e+002
3.274960e+003,3.766754e+002
3.275925e+003,3.759776e+002
3.276889e+003,3.759410e+002
3.277853e+003,3.801502e+002
3.278817e+003,3.861513e+002
3.279782e+003,3.872889e+002
3.280746e+003,3.852970e+002
3.281710e+003,3.802504e+002
3.282674e+003,3.778571e+002
3.283639e+003,3.833124e+002
3.284603e+003,3.891798e+002
3.285567e+003,3.882447e+002
3.286531e+003,3.860129e+002
3.287496e+003,3.871633e+002
3.288460e+003,3.886020e+002
3.289424e+003,3.895510e+002
3.290388e+003,3.909449e+002
3.291353e+003,3.926889e+002
3.292317e+003,3.922231e+002
3.293281e+003,3.899819e+002
3.294245e+003,3.890315e+002
3.295209e+003,3.900139e+002
3.296174e+003,3.921656e+002
3.297138e+003,3.951974e+002
3.298102e+003,3.987462e+002
3.299066e+003,4.017266e+002
3.300031e+003,4.010650e+002
3.300995e+003,3.999322e+002
3.301959e+003,4.017812e+002
3.302923e+003,4.036988e+002
3.303887e+003,4.045052e+002
3.304852e+003,4.037502e+002
3.305816e+003,4.011803e+002
3.306780e+003,3.982799e+002
3.307744e+003,3.950404e+002
3.308709e+003,3.950683e+002
3.309673e+003,3.989525e+002
3.310637e+003,4.016744e+002
3.311601e+003,4.029460e+002
3.312566e+003,4.022220e+002
3.313530e+003,4.006385e+002
3.314494e+003,4.002607e+002
3.315458e+003,4.012191e+002
3.316423e+003,4.033208e+002
3.317387e+003,4.063526e+002
3.318351e+003,4.106758e+002
3.319315e+003,4.145176e+002
3.320280e+003,4.153805e+002
3.321244e+003,4.164702e+002
3.322208e+003,4.198959e+002
3.323172e+003,4.185267e+002
3.324136e+003,4.114078e+002
3.325101e+003,4.093568e+002
3.326065e+003,4.146198e+002
3.327029e+003,4.157837e+002
3.327993e+003,4.103513e+002
3.328958e+003,4.112069e+002
3.329922e+003,4.173452e+002
3.330886e+003,4.227297e+002
3.331850e+003,4.263625e+002
3.332814e+003,4.256913e+002
3.333779e+003,4.232805e+002
3.334743e+003,4.205984e+002
3.335707e+003,4.212195e+002
3.336671e+003,4.279462e+002
3.337636e+003,4.343180e+002
3.338600e+003,4.349339e+002
3.339564e+003,4.342243e+002
3.340528e+003,4.333364e+002
3.341493e+003,4.333629e+002
3.342457e+003,4.343055e+002
3.343421e+003,4.352307e+002
3.344385e+003,4.360198e+002
3.345350e+003,4.363871e+002
3.346314e+003,4.370136e+002
3.347278e+003,4.399606e+002
3.348242e+003,4.434773e+002
3.349207e+003,4.432494e+002
3.350171e+003,4.418549e+002
3.351135e+003,4.432243e+002
3.352099e+003,4.455114e+002
3.353063e+003,4.478680e+002
3.354028e+003,4.500630e+002
3.354992e+003,4.520411e+002
3.355956e+003,4.537107e+002
3.356920e+003,4.549033e+002
3.357885e+003,4.544667e+002
3.358849e+003,4.519476e+002
3.359813e+003,4.506976e+002
3.360777e+003,4.507957e+002
3.361741e+003,4.529149e+002
3.362706e+003,4.558305e+002
3.363670e+003,4.569378e+002
3.364634e+003,4.572687e+002
3.365598e+003,4.578323e+002
3.366563e+003,4.592047e+002
3.367527e+003,4.618542e+002
3.368491e+003,4.639289e+002
3.369455e+003,4.635343e+002
3.370420e+003,4.637890e+002
3.371384e+003,4.676223e+002
3.372348e+003,4.688211e+002
3.373312e+003,4.673156e+002
3.374277e+003,4.676794e+002
3.375241e+003,4.694966e+002
3.376205e+003,4.700717e+002
3.377169e+003,4.691463e+002
3.378134e+003,4.668286e+002
3.379098e+003,4.650316e+002
3.380062e+003,4.678731e+002
3.381026e+003,4.720881e+002
3.381990e+003,4.733190e+002
3.382955e+003,4.736452e+002
3.383919e+003,4.733132e+002
3.384883e+003,4.751281e+002
3.385847e+003,4.795138e+002
3.386812e+003,4.826710e+002
3.387776e+003,4.835210e+002
3.388740e+003,4.833711e+002
3.389704e+003,4.824187e+002
3.390668e+003,4.798498e+002
3.391633e+003,4.761135e+002
3.392597e+003,4.731170e+002
3.393561e+003,4.716980e+002
3.394525e+003,4.740628e+002
3.395490e+003,4.774683e+002
3.396454e+003,4.799116e+002
3.397418e+003,4.822697e+002
3.398382e+003,4.850142e+002
3.399347e+003,4.861984e+002
3.400311e+003,4.842731e+002
3.401275e+003,4.831713e+002
3.402239e+003,4.837903e+002
3.403204e+003,4.846870e+002
3.404168e+003,4.855279e+002
3.405132e+003,4.842127e+002
3.406096e+003,4.824061e+002
3.407061e+003,4.840342e+002
3.408025e+003,4.869542e+002
3.408989e+003,4.884990e+002
3.409953e+003,4.894913e+002
3.410917e+003,4.912769e+002
3.411882e+003,4.919109e+002
3.412846e+003,4.884594e+002
3.413810e+003,4.862810e+002
3.414774e+003,4.859770e+002
3.415739e+003,4.914030e+002
3.416703e+003,5.003371e+002
3.417667e+003,5.004590e+002
3.418631e+003,4.936069e+002
3.419595e+003,4.948141e+002
3.420560e+003,5.004037e+002
3.421524e+003,4.990573e+002
3.422488e+003,4.948466e+002
3.423452e+003,4.934456e+002
3.424417e+003,4.937118e+002
3.425381e+003,4.956565e+002
3.426345e+003,4.966990e+002
3.427309e+003,4.963005e+002
3.428274e+003,4.981529e+002
3.429238e+003,5.028505e+002
3.430202e+003,5.037809e+002
3.431166e+003,4.997837e+002
3.432131e+003,4.995862e+002
3.433095e+003,5.019655e+002
3.434059e+003,5.005988e+002
3.435023e+003,4.991182e+002
3.435988e+003,5.045073e+002
3.436952e+003,5.088923e+002
3.437916e+003,5.070057e+002
3.438880e+003,5.063463e+002
3.439844e+003,5.113156e+002
3.440809e+003,5.157838e+002
3.441773e+003,5.161588e+002
3.442737e+003,5.170690e+002
3.443701e+003,5.188408e+002
3.444666e+003,5.180886e+002
3.445630e+003,5.164110e+002
3.446594e+003,5.196742e+002
3.447558e+003,5.235571e+002
3.448522e+003,5.207031e+002
3.449487e+003,5.171252e+002
3.450451e+003,5.188927e+002
3.451415e+003,5.210533e+002
3.452379e+003,5.179868e+002
3.453344e+003,5.158230e+002
3.454308e+003,5.158231e+002
3.455272e+003,5.187451e+002
3.456236e+003,5.240243e+002
3.457201e+003,5.291486e+002
3.458165e+003,5.330563e+002
3.459129e+003,5.335198e+002
3.460093e+003,5.323804e+002
3.461058e+003,5.326080e+002
3.462022e+003,5.338302e+002
3.462986e+003,5.364509e+002
3.463950e+003,5.382098e+002
3.464915e+003,5.367124e+002
3.465879e+003,5.355830e+002
3.466843e+003,5.353784e+002
3.467807e+003,5.363950e+002
3.468771e+003,5.381295e+002
3.469736e+003,5.374240e+002
3.470700e+003,5.352878e+002
3.471664e+003,5.391864e+002
3.472628e+003,5.466604e+002
3.473593e+003,5.511481e+002
3.474557e+003,5.534830e+002
3.475521e+003,5.531322e+002
3.476485e+003,5.534745e+002
3.477449e+003,5.558228e+002
3.478414e+003,5.579677e+002
3.479378e+003,5.590430e+002
3.480342e+003,5.582692e+002
3.481306e+003,5.556962e+002
3.482271e+003,5.602313e+002
3.483235e+003,5.703346e+002
3.484199e+003,5.668428e+002
3.485163e+003,5.586277e+002
3.486128e+003,5.599343e+002
3.487092e+003,5.649397e+002
3.488056e+003,5.690162e+002
3.489020e+003,5.720348e+002
3.489985e+003,5.739462e+002
3.490949e+003,5.748549e+002
3.491913e+003,5.746473e+002
3.492877e+003,5.744285e+002
3.493842e+003,5.742517e+002
3.494806e+003,5.770908e+002
3.495770e+003,5.814941e+002
3.496734e+003,5.844182e+002
3.497698e+003,5.858416e+002
3.498663e+003,5.861055e+002
3.499627e+003,5.854431e+002
3.500591e+003,0.000000e+000
