9.974011e+001,4.239715e+002
1.007043e+002,4.236694e+002
1.016686e+002,4.252594e+002
1.026328e+002,4.290887e+002
1.035970e+002,4.313080e+002
1.045613e+002,4.325576e+002
1.055255e+002,4.326382e+002
1.064897e+002,4.309897e+002
1.074540e+002,4.255226e+002
1.084182e+002,4.200410e+002
1.093824e+002,4.139027e+002
1.103467e+002,4.073908e+002
1.113109e+002,4.020652e+002
1.122751e+002,4.015671e+002
1.132394e+002,4.028633e+002
1.142036e+002,4.045505e+002
1.151678e+002,4.056524e+002
1.161321e+002,4.059945e+002
1.170963e+002,4.066002e+002
1.180605e+002,4.068179e+002
1.190248e+002,4.054187e+002
1.199890e+002,4.012419e+002
1.209532e+002,3.938170e+002
1.219175e+002,3.896516e+002
1.228817e+002,3.901344e+002
1.238459e+002,3.930424e+002
1.248102e+002,3.940332e+002
1.257744e+002,3.903731e+002
1.267386e+002,3.871171e+002
1.277029e+002,3.847510e+002
1.286671e+002,3.830197e+002
1.296313e+002,3.808453e+002
1.305956e+002,3.767848e+002
1.315598e+002,3.729220e+002
1.325240e+002,3.701175e+002
1.334883e+002,3.688711e+002
1.344525e+002,3.690634e+002
1.354167e+002,3.706674e+002
1.363810e+002,3.727557e+002
1.373452e+002,3.741856e+002
1.383094e+002,3.739946e+002
1.392737e+002,3.718908e+002
1.402379e+002,3.688980e+002
1.412021e+002,3.642328e+002
1.421664e+002,3.591074e+002
1.431306e+002,3.553866e+002
1.440948e+002,3.542195e+002
1.450591e+002,3.539929e+002
1.460233e+002,3.547502e+002
1.469875e+002,3.560828e+002
1.479518e+002,3.572255e+002
1.489160e+002,3.575159e+002
1.498802e+002,3.572173e+002
1.508445e+002,3.567902e+002
1.518087e+002,3.564591e+002
1.527729e+002,3.562141e+002
1.537372e+002,3.549812e+002
1.547014e+002,3.527192e+002
1.556656e+002,3.496672e+002
1.566299e+002,3.460706e+002
1.575941e+002,3.421575e+002
1.585583e+002,3.392000e+002
1.595226e+002,3.370579e+002
1.604868e+002,3.357833e+002
1.614510e+002,3.355262e+002
1.624153e+002,3.369209e+002
1.633795e+002,3.370377e+002
1.643438e+002,3.354362e+002
1.653080e+002,3.331402e+002
1.662722e+002,3.315095e+002
1.672365e+002,3.317571e+002
1.682007e+002,3.321196e+002
1.691649e+002,3.321966e+002
1.701292e+002,3.319280e+002
1.710934e+002,3.313443e+002
1.720576e+002,3.299654e+002
1.730219e+002,3.280651e+002
1.739861e+002,3.260023e+002
1.749503e+002,3.237454e+002
1.759146e+002,3.210376e+002
1.768788e+002,3.185824e+002
1.778430e+002,3.172371e+002
1.788073e+002,3.166393e+002
1.797715e+002,3.168036e+002
1.807357e+002,3.180435e+002
1.817000e+002,3.191882e+002
1.826642e+002,3.195492e+002
1.836284e+002,3.192131e+002
1.845927e+002,3.182110e+002
1.855569e+002,3.164691e+002
1.865211e+002,3.139638e+002
1.874854e+002,3.110284e+002
1.884496e+002,3.082825e+002
1.894138e+002,3.063508e+002
1.903781e+002,3.060086e+002
1.913423e+002,3.070053e+002
1.923065e+002,3.081981e+002
1.932708e+002,3.092102e+002
1.942350e+002,3.096183e+002
1.951992e+002,3.085686e+002
1.961635e+002,3.055160e+002
1.971277e+002,3.031288e+002
1.980919e+002,3.018551e+002
1.990562e+002,3.017168e+002
2.000204e+002,3.023547e+002
2.009846e+002,3.046698e+002
2.019489e+002,3.065932e+002
2.029131e+002,3.075202e+002
2.038773e+002,3.072789e+002
2.048416e+002,3.062722e+002
2.058058e+002,3.041372e+002
2.067700e+002,3.017845e+002
2.077343e+002,2.999435e+002
2.086985e+002,2.991384e+002
2.096627e+002,2.990140e+002
2.106270e+002,2.980956e+002
2.115912e+002,2.965669e+002
2.125554e+002,2.949377e+002
2.135197e+002,2.937186e+002
2.144839e+002,2.926858e+002
2.154481e+002,2.924713e+002
2.164124e+002,2.940236e+002
2.173766e+002,2.963682e+002
2.183408e+002,2.978848e+002
2.193051e+002,2.978358e+002
2.202693e+002,2.971002e+002
2.212335e+002,2.950992e+002
2.221978e+002,2.924071e+002
2.231620e+002,2.901708e+002
2.241262e+002,2.905425e+002
2.250904e+002,2.917605e+002
2.260547e+002,2.921512e+002
2.270189e+002,2.914211e+002
2.279831e+002,2.900557e+002
2.289474e+002,2.902827e+002
2.299116e+002,2.919350e+002
2.308758e+002,2.929704e+002
2.318401e+002,2.925791e+002
2.328043e+002,2.907430e+002
2.337685e+002,2.900949e+002
2.347328e+002,2.905345e+002
2.356970e+002,2.907548e+002
2.366612e+002,2.900702e+002
2.376255e+002,2.882882e+002
2.385897e+002,2.878156e+002
2.395539e+002,2.908548e+002
2.405182e+002,2.942607e+002
2.414824e+002,2.956311e+002
2.424466e+002,2.932632e+002
2.434109e+002,2.903717e+002
2.443751e+002,2.915396e+002
2.453393e+002,2.948042e+002
2.463036e+002,2.978367e+002
2.472678e+002,2.982235e+002
2.482320e+002,2.958831e+002
2.491963e+002,2.941691e+002
2.501605e+002,2.927922e+002
2.511247e+002,2.919477e+002
2.520890e+002,2.920382e+002
2.530532e+002,2.936797e+002
2.540174e+002,2.955603e+002
2.549817e+002,2.985962e+002
2.559459e+002,3.020464e+002
2.569102e+002,3.043673e+002
2.578744e+002,3.031120e+002
2.588386e+002,3.010624e+002
2.598029e+002,2.997623e+002
2.607671e+002,2.992975e+002
2.617313e+002,2.991166e+002
2.626956e+002,2.980147e+002
2.636598e+002,2.968907e+002
2.646240e+002,2.965931e+002
2.655883e+002,2.971385e+002
2.665525e+002,2.982463e+002
2.675167e+002,2.996595e+002
2.684810e+002,3.020551e+002
2.694452e+002,3.039580e+002
2.704094e+002,3.047239e+002
2.713737e+002,3.042959e+002
2.723379e+002,3.041239e+002
2.733021e+002,3.040865e+002
2.742664e+002,3.039468e+002
2.752306e+002,3.036669e+002
2.761948e+002,3.033238e+002
2.771591e+002,3.032472e+002
2.781233e+002,3.041183e+002
2.790875e+002,3.053888e+002
2.800518e+002,3.065471e+002
2.810160e+002,3.072650e+002
2.819802e+002,3.077072e+002
2.829445e+002,3.087047e+002
2.839087e+002,3.101259e+002
2.848729e+002,3.117250e+002
2.858372e+002,3.133537e+002
2.868014e+002,3.151160e+002
2.877656e+002,3.165768e+002
2.887299e+002,3.178095e+002
2.896941e+002,3.182387e+002
2.906583e+002,3.171981e+002
2.916226e+002,3.138471e+002
2.925868e+002,3.120237e+002
2.935510e+002,3.133850e+002
2.945153e+002,3.157627e+002
2.954795e+002,3.169603e+002
2.964437e+002,3.150447e+002
2.974080e+002,3.124059e+002
2.983722e+002,3.122251e+002
2.993364e+002,3.137501e+002
3.003007e+002,3.157029e+002
3.012649e+002,3.164337e+002
3.022291e+002,3.158235e+002
3.031934e+002,3.166401e+002
3.041576e+002,3.194121e+002
3.051218e+002,3.227682e+002
3.060861e+002,3.242166e+002
3.070503e+002,3.209378e+002
3.080145e+002,3.186262e+002
3.089788e+002,3.181797e+002
3.099430e+002,3.190896e+002
3.109072e+002,3.204386e+002
3.118715e+002,3.225032e+002
3.128357e+002,3.243762e+002
3.137999e+002,3.246998e+002
3.147642e+002,3.238913e+002
3.157284e+002,3.230920e+002
3.166926e+002,3.243580e+002
3.176569e+002,3.270045e+002
3.186211e+002,3.291647e+002
3.195853e+002,3.305957e+002
3.205496e+002,3.314805e+002
3.215138e+002,3.323956e+002
3.224780e+002,3.333202e+002
3.234423e+002,3.335565e+002
3.244065e+002,3.326573e+002
3.253707e+002,3.310110e+002
3.263350e+002,3.300152e+002
3.272992e+002,3.304094e+002
3.282634e+002,3.314936e+002
3.292277e+002,3.337198e+002
3.301919e+002,3.365956e+002
3.311561e+002,3.387970e+002
3.321204e+002,3.378625e+002
3.330846e+002,3.366226e+002
3.340488e+002,3.371567e+002
3.350131e+002,3.394031e+002
3.359773e+002,3.420230e+002
3.369415e+002,3.419282e+002
3.379058e+002,3.398739e+002
3.388700e+002,3.380002e+002
3.398342e+002,3.367259e+002
3.407985e+002,3.361142e+002
3.417627e+002,3.365485e+002
3.427269e+002,3.385904e+002
3.436912e+002,3.401549e+002
3.446554e+002,3.408304e+002
3.456196e+002,3.408809e+002
3.465839e+002,3.413816e+002
3.475481e+002,3.435270e+002
3.485123e+002,3.457094e+002
3.494765e+002,3.472440e+002
3.504408e+002,3.478524e+002
3.514050e+002,3.476571e+002
3.523692e+002,3.465029e+002
3.533335e+002,3.453704e+002
3.542977e+002,3.454055e+002
3.552619e+002,3.469306e+002
3.562262e+002,3.495384e+002
3.571904e+002,3.508951e+002
3.581546e+002,3.503605e+002
3.591189e+002,3.500544e+002
3.600831e+002,3.507087e+002
3.610473e+002,3.522010e+002
3.620116e+002,3.528961e+002
3.629758e+002,3.522070e+002
3.639400e+002,3.517765e+002
3.649043e+002,3.521453e+002
3.658685e+002,3.532589e+002
3.668327e+002,3.543728e+002
3.677970e+002,3.545993e+002
3.687612e+002,3.550151e+002
3.697254e+002,3.564581e+002
3.706897e+002,3.588847e+002
3.716539e+002,3.613891e+002
3.726181e+002,3.611298e+002
3.735824e+002,3.587540e+002
3.745466e+002,3.574400e+002
3.755108e+002,3.584817e+002
3.764751e+002,3.616779e+002
3.774393e+002,3.635547e+002
3.784035e+002,3.632920e+002
3.793678e+002,3.623470e+002
3.803320e+002,3.607312e+002
3.812962e+002,3.586654e+002
3.822605e+002,3.569923e+002
3.832247e+002,3.555345e+002
3.841889e+002,3.548905e+002
3.851532e+002,3.554389e+002
3.861174e+002,3.570659e+002
3.870816e+002,3.592925e+002
3.880459e+002,3.621758e+002
3.890101e+002,3.649653e+002
3.899743e+002,3.668566e+002
3.909386e+002,3.677504e+002
3.919028e+002,3.679135e+002
3.928670e+002,3.678140e+002
3.938313e+002,3.668520e+002
3.947955e+002,3.660659e+002
3.957597e+002,3.661309e+002
3.967240e+002,3.668432e+002
3.976882e+002,3.667711e+002
3.986524e+002,3.638267e+002
3.996167e+002,3.624752e+002
4.005809e+002,3.642186e+002
4.015451e+002,3.679395e+002
4.025094e+002,3.708215e+002
4.034736e+002,3.704684e+002
4.044378e+002,3.694171e+002
4.054021e+002,3.688042e+002
4.063663e+002,3.686540e+002
4.073305e+002,3.686551e+002
4.082948e+002,3.684295e+002
4.092590e+002,3.680179e+002
4.102232e+002,3.678708e+002
4.111875e+002,3.679597e+002
4.121517e+002,3.682392e+002
4.131159e+002,3.687328e+002
4.140802e+002,3.707540e+002
4.150444e+002,3.725916e+002
4.160086e+002,3.734641e+002
4.169729e+002,3.740131e+002
4.179371e+002,3.753814e+002
4.189013e+002,3.782895e+002
4.198656e+002,3.800419e+002
4.208298e+002,3.797708e+002
4.217940e+002,3.783447e+002
4.227583e+002,3.769690e+002
4.237225e+002,3.768246e+002
4.246867e+002,3.780785e+002
4.256510e+002,3.795342e+002
4.266152e+002,3.808776e+002
4.275794e+002,3.817877e+002
4.285437e+002,3.819748e+002
4.295079e+002,3.810535e+002
4.304721e+002,3.811763e+002
4.314364e+002,3.834466e+002
4.324006e+002,3.864111e+002
4.333648e+002,3.884098e+002
4.343291e+002,3.884955e+002
4.352933e+002,3.884437e+002
4.362575e+002,3.890789e+002
4.372218e+002,3.898659e+002
4.381860e+002,3.902800e+002
4.391502e+002,3.900071e+002
4.401145e+002,3.897474e+002
4.410787e+002,3.904334e+002
4.420429e+002,3.920267e+002
4.430072e+002,3.944850e+002
4.439714e+002,3.976130e+002
4.449356e+002,4.009752e+002
4.458999e+002,4.025206e+002
4.468641e+002,4.024386e+002
4.478283e+002,4.020819e+002
4.487926e+002,4.025672e+002
4.497568e+002,4.043617e+002
4.507210e+002,4.054061e+002
4.516853e+002,4.036962e+002
4.526495e+002,4.017534e+002
4.536137e+002,4.008453e+002
4.545780e+002,4.012136e+002
4.555422e+002,4.016769e+002
4.565064e+002,4.009791e+002
4.574707e+002,4.006036e+002
4.584349e+002,4.015239e+002
4.593991e+002,4.035515e+002
4.603634e+002,4.055299e+002
4.613276e+002,4.051485e+002
4.622918e+002,4.029258e+002
4.632561e+002,4.006498e+002
4.642203e+002,3.985825e+002
4.651845e+002,3.968226e+002
4.661488e+002,3.956910e+002
4.671130e+002,3.957261e+002
4.680772e+002,3.952252e+002
4.690415e+002,3.935640e+002
4.700057e+002,3.917348e+002
4.709699e+002,3.916298e+002
4.719342e+002,3.954840e+002
4.728984e+002,3.987149e+002
4.738626e+002,3.989216e+002
4.748269e+002,3.971127e+002
4.757911e+002,3.948394e+002
4.767553e+002,3.935137e+002
4.777196e+002,3.933287e+002
4.786838e+002,3.939153e+002
4.796480e+002,3.948065e+002
4.806123e+002,3.949987e+002
4.815765e+002,3.935520e+002
4.825407e+002,3.902506e+002
4.835050e+002,3.881272e+002
4.844692e+002,3.877206e+002
4.854334e+002,3.877766e+002
4.863977e+002,3.870471e+002
4.873619e+002,3.847771e+002
4.883261e+002,3.827088e+002
4.892904e+002,3.831667e+002
4.902546e+002,3.842161e+002
4.912188e+002,3.843405e+002
4.921831e+002,3.829236e+002
4.931473e+002,3.808088e+002
4.941115e+002,3.794995e+002
4.950758e+002,3.787424e+002
4.960400e+002,3.784539e+002
4.970042e+002,3.786891e+002
4.979685e+002,3.795000e+002
4.989327e+002,3.806383e+002
4.998969e+002,3.818080e+002
5.008612e+002,3.823734e+002
5.018254e+002,3.820898e+002
5.027896e+002,3.810534e+002
5.037539e+002,3.796271e+002
5.047181e+002,3.775433e+002
5.056823e+002,3.765518e+002
5.066466e+002,3.772807e+002
5.076108e+002,3.791336e+002
5.085750e+002,3.812171e+002
5.095393e+002,3.828768e+002
5.105035e+002,3.837434e+002
5.114677e+002,3.843661e+002
5.124320e+002,3.848626e+002
5.133962e+002,3.848057e+002
5.143605e+002,3.835796e+002
5.153247e+002,3.809229e+002
5.162889e+002,3.807403e+002
5.172532e+002,3.836640e+002
5.182174e+002,3.877692e+002
5.191816e+002,3.917277e+002
5.201459e+002,3.953083e+002
5.211101e+002,3.991060e+002
5.220743e+002,4.034734e+002
5.230386e+002,4.073770e+002
5.240028e+002,4.103694e+002
5.249670e+002,4.128547e+002
5.259313e+002,4.163773e+002
5.268955e+002,4.225190e+002
5.278597e+002,4.288034e+002
5.288240e+002,4.338517e+002
5.297882e+002,4.375759e+002
5.307524e+002,4.407100e+002
5.317167e+002,4.446712e+002
5.326809e+002,4.501474e+002
5.336451e+002,4.558188e+002
5.346094e+002,4.609196e+002
5.355736e+002,4.653218e+002
5.365378e+002,4.693627e+002
5.375021e+002,4.735169e+002
5.384663e+002,4.783912e+002
5.394305e+002,4.843783e+002
5.403948e+002,4.905971e+002
5.413590e+002,4.959646e+002
5.423232e+002,4.996039e+002
5.432875e+002,5.028552e+002
5.442517e+002,5.086100e+002
5.452159e+002,5.153595e+002
5.461802e+002,5.206490e+002
5.471444e+002,5.229796e+002
5.481086e+002,5.230131e+002
5.490729e+002,5.262606e+002
5.500371e+002,5.329764e+002
5.510013e+002,5.372783e+002
5.519656e+002,5.356675e+002
5.529298e+002,5.292200e+002
5.538940e+002,5.268008e+002
5.548583e+002,5.329619e+002
5.558225e+002,5.367102e+002
5.567867e+002,5.362559e+002
5.577510e+002,5.329994e+002
5.587152e+002,5.298148e+002
5.596794e+002,5.284705e+002
5.606437e+002,5.275729e+002
5.616079e+002,5.259406e+002
5.625721e+002,5.236272e+002
5.635364e+002,5.206163e+002
5.645006e+002,5.168555e+002
5.654648e+002,5.124846e+002
5.664291e+002,5.097085e+002
5.673933e+002,5.091964e+002
5.683575e+002,5.089824e+002
5.693218e+002,5.068492e+002
5.702860e+002,5.016447e+002
5.712502e+002,4.976496e+002
5.722145e+002,4.969991e+002
5.731787e+002,4.953873e+002
5.741429e+002,4.914417e+002
5.751072e+002,4.858352e+002
5.760714e+002,4.809897e+002
5.770356e+002,4.783643e+002
5.779999e+002,4.768531e+002
5.789641e+002,4.754737e+002
5.799283e+002,4.739794e+002
5.808926e+002,4.726228e+002
5.818568e+002,4.720069e+002
5.828210e+002,4.715157e+002
5.837853e+002,4.689095e+002
5.847495e+002,4.644338e+002
5.857137e+002,4.592960e+002
5.866780e+002,4.544288e+002
5.876422e+002,4.496508e+002
5.886064e+002,4.457946e+002
5.895707e+002,4.432402e+002
5.905349e+002,4.411263e+002
5.914991e+002,4.389722e+002
5.924634e+002,4.365669e+002
5.934276e+002,4.339597e+002
5.943918e+002,4.313943e+002
5.953560e+002,4.289898e+002
5.963203e+002,4.267194e+002
5.972845e+002,4.244107e+002
5.982487e+002,4.219237e+002
5.992130e+002,4.194383e+002
6.001772e+002,4.171999e+002
6.011414e+002,4.136786e+002
6.021057e+002,4.079434e+002
6.030699e+002,4.013152e+002
6.040341e+002,3.958748e+002
6.049984e+002,3.926771e+002
6.059626e+002,3.891918e+002
6.069268e+002,3.863008e+002
6.078911e+002,3.835905e+002
6.088553e+002,3.803271e+002
6.098195e+002,3.760576e+002
6.107838e+002,3.713847e+002
6.117480e+002,3.670577e+002
6.127122e+002,3.631108e+002
6.136765e+002,3.592018e+002
6.146407e+002,3.551932e+002
6.156049e+002,3.512034e+002
6.165692e+002,3.477223e+002
6.175334e+002,3.448853e+002
6.184976e+002,3.421984e+002
6.194619e+002,3.399515e+002
6.204261e+002,3.375833e+002
6.213903e+002,3.339444e+002
6.223546e+002,3.275929e+002
6.233188e+002,3.231704e+002
6.242830e+002,3.213516e+002
6.252473e+002,3.200492e+002
6.262115e+002,3.184000e+002
6.271757e+002,3.163140e+002
6.281400e+002,3.138827e+002
6.291042e+002,3.108458e+002
6.300684e+002,3.077178e+002
6.310327e+002,3.047045e+002
6.319969e+002,3.018469e+002
6.329611e+002,2.990307e+002
6.339254e+002,2.959778e+002
6.348896e+002,2.924712e+002
6.358538e+002,2.895076e+002
6.368181e+002,2.875431e+002
6.377823e+002,2.856199e+002
6.387465e+002,2.822016e+002
6.397108e+002,2.760963e+002
6.406750e+002,2.727928e+002
6.416392e+002,2.743066e+002
6.426035e+002,2.754243e+002
6.435677e+002,2.735318e+002
6.445319e+002,2.686383e+002
6.454962e+002,2.632463e+002
6.464604e+002,2.581033e+002
6.474246e+002,2.542438e+002
6.483889e+002,2.533708e+002
6.493531e+002,2.544230e+002
6.503173e+002,2.545973e+002
6.512816e+002,2.504919e+002
6.522458e+002,2.424078e+002
6.532100e+002,2.373684e+002
6.541743e+002,2.360334e+002
6.551385e+002,2.359341e+002
6.561027e+002,2.351534e+002
6.570670e+002,2.334887e+002
6.580312e+002,2.312288e+002
6.589954e+002,2.273949e+002
6.599597e+002,2.235147e+002
6.609239e+002,2.206170e+002
6.618881e+002,2.187045e+002
6.628524e+002,2.169338e+002
6.638166e+002,2.146385e+002
6.647808e+002,2.121010e+002
6.657451e+002,2.091563e+002
6.667093e+002,2.059151e+002
6.676735e+002,2.029243e+002
6.686378e+002,2.008071e+002
6.696020e+002,1.995036e+002
6.705662e+002,1.967613e+002
6.715305e+002,1.922997e+002
6.724947e+002,1.876634e+002
6.734589e+002,1.835669e+002
6.744232e+002,1.801922e+002
6.753874e+002,1.778904e+002
6.763516e+002,1.774775e+002
6.773159e+002,1.772143e+002
6.782801e+002,1.766453e+002
6.792443e+002,1.756822e+002
6.802086e+002,1.745276e+002
6.811728e+002,1.735146e+002
6.821370e+002,1.718382e+002
6.831013e+002,1.683336e+002
6.840655e+002,1.639991e+002
6.850297e+002,1.602462e+002
6.859940e+002,1.578484e+002
6.869582e+002,1.565276e+002
6.879224e+002,1.551642e+002
6.888867e+002,1.538109e+002
6.898509e+002,1.520520e+002
6.908151e+002,1.500983e+002
6.917794e+002,1.479394e+002
6.927436e+002,1.451698e+002
6.937078e+002,1.409390e+002
6.946721e+002,1.372434e+002
6.956363e+002,1.347088e+002
6.966005e+002,1.330499e+002
6.975648e+002,1.318783e+002
6.985290e+002,1.308784e+002
6.994932e+002,1.299188e+002
7.004575e+002,1.295568e+002
7.014217e+002,1.294462e+002
7.023859e+002,1.288203e+002
7.033502e+002,1.275568e+002
7.043144e+002,1.258570e+002
7.052786e+002,1.239077e+002
7.062429e+002,1.208922e+002
7.072071e+002,1.186363e+002
7.081713e+002,1.182184e+002
7.091356e+002,1.180872e+002
7.100998e+002,1.165288e+002
7.110640e+002,1.129598e+002
7.120283e+002,1.098917e+002
7.129925e+002,1.090704e+002
7.139567e+002,1.089054e+002
7.149210e+002,1.089700e+002
7.158852e+002,1.089241e+002
7.168494e+002,1.083176e+002
7.178137e+002,1.064599e+002
7.187779e+002,1.038183e+002
7.197421e+002,1.024434e+002
7.207064e+002,1.022844e+002
7.216706e+002,1.024902e+002
7.226348e+002,1.023967e+002
7.235991e+002,1.020594e+002
7.245633e+002,1.020259e+002
7.255275e+002,1.019921e+002
7.264918e+002,1.018776e+002
7.274560e+002,1.021944e+002
7.284202e+002,1.027247e+002
7.293845e+002,1.025464e+002
7.303487e+002,1.006446e+002
7.313129e+002,9.845403e+001
7.322772e+002,9.723242e+001
7.332414e+002,9.658932e+001
7.342056e+002,9.580229e+001
7.351699e+002,9.448102e+001
7.361341e+002,9.313664e+001
7.370983e+002,9.405455e+001
7.380626e+002,9.727661e+001
7.390268e+002,9.928040e+001
7.399910e+002,9.869867e+001
7.409553e+002,9.669682e+001
7.419195e+002,9.590962e+001
7.428837e+002,9.691895e+001
7.438480e+002,9.730669e+001
7.448122e+002,9.658267e+001
7.457764e+002,9.584108e+001
7.467407e+002,9.585240e+001
7.477049e+002,9.685678e+001
7.486691e+002,9.860034e+001
7.496334e+002,1.011234e+002
7.505976e+002,1.033727e+002
7.515618e+002,1.042371e+002
7.525261e+002,1.037289e+002
7.534903e+002,1.027951e+002
7.544545e+002,1.027794e+002
7.554188e+002,1.042070e+002
7.563830e+002,1.057694e+002
7.573472e+002,1.067753e+002
7.583115e+002,1.076296e+002
7.592757e+002,1.088657e+002
7.602399e+002,1.107059e+002
7.612042e+002,1.128184e+002
7.621684e+002,1.150149e+002
7.631326e+002,1.166173e+002
7.640969e+002,1.172702e+002
7.650611e+002,1.172934e+002
7.660253e+002,1.171362e+002
7.669896e+002,1.171888e+002
7.679538e+002,1.178915e+002
7.689180e+002,1.201474e+002
7.698823e+002,1.229949e+002
7.708465e+002,1.247163e+002
7.718107e+002,1.247404e+002
7.727750e+002,1.237891e+002
7.737392e+002,1.235680e+002
7.747034e+002,1.248263e+002
7.756677e+002,1.256721e+002
7.766319e+002,1.253175e+002
7.775961e+002,1.246681e+002
7.785604e+002,1.245187e+002
7.795246e+002,1.250839e+002
7.804888e+002,1.259849e+002
7.814531e+002,1.275449e+002
7.824173e+002,1.289026e+002
7.833815e+002,1.294677e+002
7.843458e+002,1.292914e+002
7.853100e+002,1.286588e+002
7.862742e+002,1.277310e+002
7.872385e+002,1.262417e+002
7.882027e+002,1.254375e+002
7.891669e+002,1.255914e+002
7.901312e+002,1.255590e+002
7.910954e+002,1.250052e+002
7.920596e+002,1.242316e+002
7.930239e+002,1.235750e+002
7.939881e+002,1.229128e+002
7.949523e+002,1.221179e+002
7.959166e+002,1.209128e+002
7.968808e+002,1.195166e+002
7.978450e+002,1.180952e+002
7.988093e+002,1.167614e+002
7.997735e+002,1.158446e+002
8.007377e+002,1.168230e+002
8.017020e+002,1.185322e+002
8.026662e+002,1.187165e+002
8.036304e+002,1.166441e+002
8.045947e+002,1.133277e+002
8.055589e+002,1.107812e+002
8.065231e+002,1.092872e+002
8.074874e+002,1.078631e+002
8.084516e+002,1.063982e+002
8.094158e+002,1.051048e+002
8.103801e+002,1.046447e+002
8.113443e+002,1.050822e+002
8.123085e+002,1.051392e+002
8.132728e+002,1.030642e+002
8.142370e+002,1.006075e+002
8.152012e+002,9.903296e+001
8.161655e+002,9.776372e+001
8.171297e+002,9.591788e+001
8.180939e+002,9.306679e+001
8.190582e+002,8.990448e+001
8.200224e+002,8.789009e+001
8.209866e+002,8.680347e+001
8.219509e+002,8.556387e+001
8.229151e+002,8.339941e+001
8.238793e+002,8.081296e+001
8.248436e+002,7.924913e+001
8.258078e+002,7.965758e+001
8.267720e+002,7.909174e+001
8.277363e+002,7.595943e+001
8.287005e+002,7.255794e+001
8.296647e+002,7.069540e+001
8.306290e+002,7.060649e+001
8.315932e+002,7.107365e+001
8.325574e+002,7.120488e+001
8.335217e+002,7.062265e+001
8.344859e+002,6.831934e+001
8.354501e+002,6.452061e+001
8.364144e+002,6.104410e+001
8.373786e+002,5.955171e+001
8.383428e+002,6.007397e+001
8.393071e+002,6.028912e+001
8.402713e+002,5.974693e+001
8.412355e+002,5.950941e+001
8.421998e+002,6.032451e+001
8.431640e+002,6.117957e+001
8.441282e+002,6.039645e+001
8.450925e+002,5.716142e+001
8.460567e+002,5.391254e+001
8.470209e+002,5.224818e+001
8.479852e+002,5.124968e+001
8.489494e+002,5.029187e+001
8.499136e+002,4.933197e+001
8.508779e+002,4.881354e+001
8.518421e+002,4.931335e+001
8.528063e+002,5.076500e+001
8.537706e+002,5.142195e+001
8.547348e+002,5.106671e+001
8.556990e+002,5.074248e+001
8.566633e+002,5.123262e+001
8.576275e+002,5.229596e+001
8.585917e+002,5.250351e+001
8.595560e+002,5.137646e+001
8.605202e+002,5.006033e+001
8.614844e+002,4.848163e+001
8.624487e+002,4.716296e+001
8.634129e+002,4.664906e+001
8.643771e+002,4.695346e+001
8.653414e+002,4.718095e+001
8.663056e+002,4.615855e+001
8.672698e+002,4.496371e+001
8.682341e+002,4.505685e+001
8.691983e+002,4.642471e+001
8.701625e+002,4.819614e+001
8.711268e+002,4.959738e+001
8.720910e+002,5.070015e+001
8.730552e+002,4.991913e+001
8.740195e+002,4.602788e+001
8.749837e+002,4.343320e+001
8.759479e+002,4.351859e+001
8.769122e+002,4.525423e+001
8.778764e+002,4.688231e+001
8.788406e+002,4.778841e+001
8.798049e+002,4.798741e+001
8.807691e+002,4.805151e+001
8.817333e+002,4.790129e+001
8.826976e+002,4.681813e+001
8.836618e+002,4.482480e+001
8.846260e+002,4.302664e+001
8.855903e+002,4.329271e+001
8.865545e+002,4.594353e+001
8.875187e+002,4.758678e+001
8.884830e+002,4.809422e+001
8.894472e+002,4.803044e+001
8.904114e+002,4.732733e+001
8.913757e+002,4.623021e+001
8.923399e+002,4.600119e+001
8.933041e+002,4.730916e+001
8.942684e+002,4.840704e+001
8.952326e+002,4.893066e+001
8.961968e+002,4.899240e+001
8.971611e+002,4.843445e+001
8.981253e+002,4.743961e+001
8.990895e+002,4.701703e+001
9.000538e+002,4.898097e+001
9.010180e+002,5.270499e+001
9.019822e+002,5.467827e+001
9.029465e+002,5.441937e+001
9.039107e+002,5.371634e+001
9.048749e+002,5.445512e+001
9.058392e+002,5.673936e+001
9.068034e+002,5.776976e+001
9.077676e+002,5.521500e+001
9.087319e+002,5.409476e+001
9.096961e+002,5.656786e+001
9.106603e+002,6.073160e+001
9.116246e+002,6.375569e+001
9.125888e+002,6.440662e+001
9.135530e+002,6.473160e+001
9.145173e+002,6.800714e+001
9.154815e+002,7.220633e+001
9.164457e+002,7.486713e+001
9.174100e+002,7.587411e+001
9.183742e+002,7.654530e+001
9.193384e+002,7.830344e+001
9.203027e+002,8.126598e+001
9.212669e+002,8.376385e+001
9.222311e+002,8.512453e+001
9.231954e+002,8.585490e+001
9.241596e+002,8.597893e+001
9.251238e+002,8.617302e+001
9.260881e+002,8.731297e+001
9.270523e+002,8.966525e+001
9.280165e+002,9.231161e+001
9.289808e+002,9.464882e+001
9.299450e+002,9.697876e+001
9.309092e+002,9.950601e+001
9.318735e+002,1.021624e+002
9.328377e+002,1.047155e+002
9.338019e+002,1.069530e+002
9.347662e+002,1.088599e+002
9.357304e+002,1.110702e+002
9.366946e+002,1.142992e+002
9.376589e+002,1.171037e+002
9.386231e+002,1.184584e+002
9.395873e+002,1.187612e+002
9.405516e+002,1.192829e+002
9.415158e+002,1.205144e+002
9.424800e+002,1.216932e+002
9.434443e+002,1.221290e+002
9.444085e+002,1.227909e+002
9.453727e+002,1.244749e+002
9.463370e+002,1.270754e+002
9.473012e+002,1.298725e+002
9.482654e+002,1.321593e+002
9.492297e+002,1.336923e+002
9.501939e+002,1.345465e+002
9.511581e+002,1.352061e+002
9.521224e+002,1.353277e+002
9.530866e+002,1.340386e+002
9.540508e+002,1.320261e+002
9.550151e+002,1.312809e+002
9.559793e+002,1.321027e+002
9.569435e+002,1.327667e+002
9.579078e+002,1.341370e+002
9.588720e+002,1.353827e+002
9.598362e+002,1.351428e+002
9.608005e+002,1.339265e+002
9.617647e+002,1.337966e+002
9.627289e+002,1.365320e+002
9.636932e+002,1.403307e+002
9.646574e+002,1.411239e+002
9.656216e+002,1.396959e+002
9.665859e+002,1.387944e+002
9.675501e+002,1.397255e+002
9.685143e+002,1.418571e+002
9.694786e+002,1.435800e+002
9.704428e+002,1.445683e+002
9.714070e+002,1.463107e+002
9.723713e+002,1.484729e+002
9.733355e+002,1.505118e+002
9.742997e+002,1.525974e+002
9.752640e+002,1.549345e+002
9.762282e+002,1.574313e+002
9.771924e+002,1.596868e+002
9.781567e+002,1.619969e+002
9.791209e+002,1.652977e+002
9.800851e+002,1.690487e+002
9.810494e+002,1.724023e+002
9.820136e+002,1.752714e+002
9.829778e+002,1.782657e+002
9.839421e+002,1.821421e+002
9.849063e+002,1.869078e+002
9.858705e+002,1.897710e+002
9.868348e+002,1.913548e+002
9.877990e+002,1.919919e+002
9.887632e+002,1.906377e+002
9.897275e+002,1.884872e+002
9.906917e+002,1.875128e+002
9.916559e+002,1.880951e+002
9.926202e+002,1.886267e+002
9.935844e+002,1.885873e+002
9.945486e+002,1.885095e+002
9.955129e+002,1.888746e+002
9.964771e+002,1.896511e+002
9.974413e+002,1.901265e+002
9.984056e+002,1.894514e+002
9.993698e+002,1.876035e+002
1.000334e+003,1.865957e+002
1.001298e+003,1.870094e+002
1.002263e+003,1.875473e+002
1.003227e+003,1.879780e+002
1.004191e+003,1.884270e+002
1.005155e+003,1.887337e+002
1.006119e+003,1.887925e+002
1.007084e+003,1.899247e+002
1.008048e+003,1.944767e+002
1.009012e+003,1.993290e+002
1.009976e+003,2.025028e+002
1.010941e+003,2.040930e+002
1.011905e+003,2.045866e+002
1.012869e+003,2.044023e+002
1.013833e+003,2.040818e+002
1.014798e+003,2.050575e+002
1.015762e+003,2.082352e+002
1.016726e+003,2.114843e+002
1.017690e+003,2.148762e+002
1.018654e+003,2.180984e+002
1.019619e+003,2.205089e+002
1.020583e+003,2.221681e+002
1.021547e+003,2.243805e+002
1.022511e+003,2.275453e+002
1.023476e+003,2.308404e+002
1.024440e+003,2.340568e+002
1.025404e+003,2.376048e+002
1.026368e+003,2.423805e+002
1.027333e+003,2.481611e+002
1.028297e+003,2.531889e+002
1.029261e+003,2.550187e+002
1.030225e+003,2.538606e+002
1.031190e+003,2.551481e+002
1.032154e+003,2.597463e+002
1.033118e+003,2.651826e+002
1.034082e+003,2.705045e+002
1.035047e+003,2.755516e+002
1.036011e+003,2.801543e+002
1.036975e+003,2.841298e+002
1.037939e+003,2.876632e+002
1.038903e+003,2.909215e+002
1.039868e+003,2.946972e+002
1.040832e+003,2.995122e+002
1.041796e+003,3.047862e+002
1.042760e+003,3.094055e+002
1.043725e+003,3.127090e+002
1.044689e+003,3.150276e+002
1.045653e+003,3.170706e+002
1.046617e+003,3.188737e+002
1.047582e+003,3.216143e+002
1.048546e+003,3.260408e+002
1.049510e+003,3.317646e+002
1.050474e+003,3.386406e+002
1.051438e+003,3.463590e+002
1.052403e+003,3.523350e+002
1.053367e+003,3.546438e+002
1.054331e+003,3.568888e+002
1.055295e+003,3.598609e+002
1.056260e+003,3.638577e+002
1.057224e+003,3.697978e+002
1.058188e+003,3.774553e+002
1.059152e+003,3.847494e+002
1.060117e+003,3.891328e+002
1.061081e+003,3.914790e+002
1.062045e+003,3.964146e+002
1.063009e+003,4.036392e+002
1.063974e+003,4.101082e+002
1.064938e+003,4.147393e+002
1.065902e+003,4.185301e+002
1.066866e+003,4.229763e+002
1.067830e+003,4.278935e+002
1.068795e+003,4.323377e+002
1.069759e+003,4.355115e+002
1.070723e+003,4.393515e+002
1.071687e+003,4.455105e+002
1.072652e+003,4.532306e+002
1.073616e+003,4.606971e+002
1.074580e+003,4.667178e+002
1.075544e+003,4.717000e+002
1.076509e+003,4.770583e+002
1.077473e+003,4.826797e+002
1.078437e+003,4.864609e+002
1.079401e+003,4.877086e+002
1.080365e+003,4.895079e+002
1.081330e+003,4.946444e+002
1.082294e+003,5.023741e+002
1.083258e+003,5.084756e+002
1.084222e+003,5.126144e+002
1.085187e+003,5.154349e+002
1.086151e+003,5.161267e+002
1.087115e+003,5.168580e+002
1.088079e+003,5.195221e+002
1.089043e+003,5.236676e+002
1.090008e+003,5.274094e+002
1.090972e+003,5.294530e+002
1.091936e+003,5.300251e+002
1.092900e+003,5.291541e+002
1.093865e+003,5.270325e+002
1.094829e+003,5.251072e+002
1.095793e+003,5.238273e+002
1.096757e+003,5.232086e+002
1.097722e+003,5.233353e+002
1.098686e+003,5.238646e+002
1.099650e+003,5.228097e+002
1.100614e+003,5.197983e+002
1.101578e+003,5.166815e+002
1.102543e+003,5.134401e+002
1.103507e+003,5.103224e+002
1.104471e+003,5.075306e+002
1.105435e+003,5.046732e+002
1.106400e+003,5.011313e+002
1.107364e+003,4.969097e+002
1.108328e+003,4.921642e+002
1.109292e+003,4.851463e+002
1.110257e+003,4.760202e+002
1.111221e+003,4.682451e+002
1.112185e+003,4.628011e+002
1.113149e+003,4.582706e+002
1.114114e+003,4.532010e+002
1.115078e+003,4.478611e+002
1.116042e+003,4.423774e+002
1.117006e+003,4.369861e+002
1.117970e+003,4.314550e+002
1.118935e+003,4.254777e+002
1.119899e+003,4.188904e+002
1.120863e+003,4.116197e+002
1.121827e+003,4.039546e+002
1.122792e+003,3.965785e+002
1.123756e+003,3.900716e+002
1.124720e+003,3.838161e+002
1.125684e+003,3.763716e+002
1.126649e+003,3.681141e+002
1.127613e+003,3.606138e+002
1.128577e+003,3.540116e+002
1.129541e+003,3.484606e+002
1.130505e+003,3.448215e+002
1.131470e+003,3.433957e+002
1.132434e+003,3.404666e+002
1.133398e+003,3.345655e+002
1.134362e+003,3.276873e+002
1.135327e+003,3.195532e+002
1.136291e+003,3.111221e+002
1.137255e+003,3.037528e+002
1.138219e+003,2.979923e+002
1.139184e+003,2.933649e+002
1.140148e+003,2.891756e+002
1.141112e+003,2.850765e+002
1.142076e+003,2.800912e+002
1.143041e+003,2.746242e+002
1.144005e+003,2.690753e+002
1.144969e+003,2.630668e+002
1.145933e+003,2.572666e+002
1.146897e+003,2.529536e+002
1.147862e+003,2.501564e+002
1.148826e+003,2.467076e+002
1.149790e+003,2.413941e+002
1.150754e+003,2.359454e+002
1.151719e+003,2.313700e+002
1.152683e+003,2.273969e+002
1.153647e+003,2.235376e+002
1.154611e+003,2.195992e+002
1.155576e+003,2.155257e+002
1.156540e+003,2.110654e+002
1.157504e+003,2.057953e+002
1.158468e+003,2.008598e+002
1.159432e+003,1.969197e+002
1.160397e+003,1.930205e+002
1.161361e+003,1.891950e+002
1.162325e+003,1.855464e+002
1.163289e+003,1.820807e+002
1.164254e+003,1.785920e+002
1.165218e+003,1.744748e+002
1.166182e+003,1.687467e+002
1.167146e+003,1.637306e+002
1.168111e+003,1.620316e+002
1.169075e+003,1.618370e+002
1.170039e+003,1.599846e+002
1.171003e+003,1.555704e+002
1.171968e+003,1.505331e+002
1.172932e+003,1.476355e+002
1.173896e+003,1.471045e+002
1.174860e+003,1.450689e+002
1.175824e+003,1.394913e+002
1.176789e+003,1.347234e+002
1.177753e+003,1.319379e+002
1.178717e+003,1.297282e+002
1.179681e+003,1.265862e+002
1.180646e+003,1.225643e+002
1.181610e+003,1.191265e+002
1.182574e+003,1.173713e+002
1.183538e+003,1.157956e+002
1.184503e+003,1.120473e+002
1.185467e+003,1.072787e+002
1.186431e+003,1.035246e+002
1.187395e+003,1.011399e+002
1.188359e+003,9.907254e+001
1.189324e+003,9.638942e+001
1.190288e+003,9.335376e+001
1.191252e+003,9.111179e+001
1.192216e+003,9.033997e+001
1.193181e+003,8.886478e+001
1.194145e+003,8.564850e+001
1.195109e+003,8.213107e+001
1.196073e+003,7.954247e+001
1.197038e+003,7.778729e+001
1.198002e+003,7.598088e+001
1.198966e+003,7.360931e+001
1.199930e+003,7.117584e+001
1.200895e+003,6.959242e+001
1.201859e+003,6.862828e+001
1.202823e+003,6.734727e+001
1.203787e+003,6.564236e+001
1.204751e+003,6.357712e+001
1.205716e+003,6.106233e+001
1.206680e+003,5.830415e+001
1.207644e+003,5.588361e+001
1.208608e+003,5.392093e+001
1.209573e+003,5.158968e+001
1.210537e+003,4.813676e+001
1.211501e+003,4.530559e+001
1.212465e+003,4.411263e+001
1.213430e+003,4.394095e+001
1.214394e+003,4.382916e+001
1.215358e+003,4.313756e+001
1.216322e+003,4.157318e+001
1.217286e+003,3.902309e+001
1.218251e+003,3.577351e+001
1.219215e+003,3.312863e+001
1.220179e+003,3.123746e+001
1.221143e+003,2.983664e+001
1.222108e+003,2.864151e+001
1.223072e+003,2.804549e+001
1.224036e+003,2.866737e+001
1.225000e+003,3.019513e+001
1.225965e+003,3.106499e+001
1.226929e+003,3.068106e+001
1.227893e+003,2.948349e+001
1.228857e+003,2.872473e+001
1.229822e+003,2.793930e+001
1.230786e+003,2.553955e+001
1.231750e+003,2.165643e+001
1.232714e+003,1.839316e+001
1.233678e+003,1.758830e+001
1.234643e+003,1.860657e+001
1.235607e+003,1.916293e+001
1.236571e+003,1.939519e+001
1.237535e+003,1.970261e+001
1.238500e+003,2.006827e+001
1.239464e+003,2.015793e+001
1.240428e+003,1.947336e+001
1.241392e+003,1.832187e+001
1.242357e+003,1.749371e+001
1.243321e+003,1.736060e+001
1.244285e+003,1.743974e+001
1.245249e+003,1.718250e+001
1.246214e+003,1.686292e+001
1.247178e+003,1.670958e+001
1.248142e+003,1.654602e+001
1.249106e+003,1.657684e+001
1.250070e+003,1.714600e+001
1.251035e+003,1.767386e+001
1.251999e+003,1.702812e+001
1.252963e+003,1.510861e+001
1.253927e+003,1.357387e+001
1.254892e+003,1.218304e+001
1.255856e+003,1.200201e+001
1.256820e+003,1.438858e+001
1.257784e+003,1.683260e+001
1.258749e+003,1.709285e+001
1.259713e+003,1.561615e+001
1.260677e+003,1.441960e+001
1.261641e+003,1.467586e+001
1.262605e+003,1.559503e+001
1.263570e+003,1.594078e+001
1.264534e+003,1.570204e+001
1.265498e+003,1.477972e+001
1.266462e+003,1.270221e+001
1.267427e+003,1.112367e+001
1.268391e+003,1.086778e+001
1.269355e+003,1.119084e+001
1.270319e+003,1.127582e+001
1.271284e+003,1.120178e+001
1.272248e+003,1.050023e+001
1.273212e+003,8.340714e+000
1.274176e+003,6.961136e+000
1.275141e+003,7.685089e+000
1.276105e+003,9.152344e+000
1.277069e+003,1.011935e+001
1.278033e+003,1.037854e+001
1.278997e+003,1.011488e+001
1.279962e+003,9.432159e+000
1.280926e+003,8.759903e+000
1.281890e+003,9.476501e+000
1.282854e+003,1.220680e+001
1.283819e+003,1.334483e+001
1.284783e+003,1.264017e+001
1.285747e+003,1.137997e+001
1.286711e+003,9.781570e+000
1.287676e+003,8.505417e+000
1.288640e+003,8.566620e+000
1.289604e+003,9.966431e+000
1.290568e+003,1.095045e+001
1.291532e+003,9.820328e+000
1.292497e+003,7.732010e+000
1.293461e+003,7.558472e+000
1.294425e+003,9.013489e+000
1.295389e+003,9.960327e+000
1.296354e+003,9.557281e+000
1.297318e+003,8.643768e+000
1.298282e+003,8.059311e+000
1.299246e+003,7.728790e+000
1.300211e+003,7.283310e+000
1.301175e+003,6.715439e+000
1.302139e+003,6.700226e+000
1.303103e+003,7.663879e+000
1.304068e+003,8.404541e+000
1.305032e+003,7.972076e+000
1.305996e+003,7.002243e+000
1.306960e+003,6.856918e+000
1.307924e+003,8.080963e+000
1.308889e+003,9.810440e+000
1.309853e+003,1.067450e+001
1.310817e+003,1.031807e+001
1.311781e+003,9.449265e+000
1.312746e+003,8.262985e+000
1.313710e+003,8.015671e+000
1.314674e+003,9.497971e+000
1.315638e+003,1.097346e+001
1.316603e+003,1.080447e+001
1.317567e+003,9.218918e+000
1.318531e+003,7.596954e+000
1.319495e+003,6.708664e+000
1.320459e+003,6.717026e+000
1.321424e+003,7.787567e+000
1.322388e+003,8.853638e+000
1.323352e+003,8.291351e+000
1.324316e+003,6.474442e+000
1.325281e+003,5.436676e+000
1.326245e+003,6.178223e+000
1.327209e+003,7.596756e+000
1.328173e+003,8.197723e+000
1.329138e+003,7.975632e+000
1.330102e+003,7.799454e+000
1.331066e+003,8.108749e+000
1.332030e+003,8.153671e+000
1.332995e+003,6.909714e+000
1.333959e+003,5.736404e+000
1.334923e+003,5.840118e+000
1.335887e+003,6.700089e+000
1.336851e+003,7.255157e+000
1.337816e+003,7.136063e+000
1.338780e+003,6.657516e+000
1.339744e+003,5.921326e+000
1.340708e+003,4.811646e+000
1.341673e+003,5.091919e+000
1.342637e+003,8.138000e+000
1.343601e+003,9.617386e+000
1.344565e+003,8.075226e+000
1.345530e+003,6.162094e+000
1.346494e+003,5.664856e+000
1.347458e+003,6.277695e+000
1.348422e+003,7.133331e+000
1.349386e+003,7.927719e+000
1.350351e+003,7.877335e+000
1.351315e+003,5.940475e+000
1.352279e+003,3.700729e+000
1.353243e+003,3.581772e+000
1.354208e+003,5.153473e+000
1.355172e+003,6.432480e+000
1.356136e+003,6.520615e+000
1.357100e+003,6.087280e+000
1.358065e+003,6.122223e+000
1.359029e+003,6.630630e+000
1.359993e+003,6.736649e+000
1.360957e+003,6.318802e+000
1.361922e+003,6.024933e+000
1.362886e+003,6.261154e+000
1.363850e+003,6.353363e+000
1.364814e+003,5.566452e+000
1.365778e+003,4.310333e+000
1.366743e+003,3.136063e+000
1.367707e+003,2.402786e+000
1.368671e+003,2.661057e+000
1.369635e+003,4.612320e+000
1.370600e+003,7.766129e+000
1.371564e+003,9.215729e+000
1.372528e+003,7.767197e+000
1.373492e+003,6.819229e+000
1.374457e+003,6.441132e+000
1.375421e+003,6.185242e+000
1.376385e+003,6.009705e+000
1.377349e+003,6.002441e+000
1.378313e+003,6.246902e+000
1.379278e+003,6.647644e+000
1.380242e+003,6.849640e+000
1.381206e+003,6.620255e+000
1.382170e+003,6.623169e+000
1.383135e+003,8.495651e+000
1.384099e+003,1.121173e+001
1.385063e+003,1.144957e+001
1.386027e+003,8.163620e+000
1.386992e+003,4.867371e+000
1.387956e+003,4.281662e+000
1.388920e+003,5.432602e+000
1.389884e+003,6.234741e+000
1.390849e+003,6.709259e+000
1.391813e+003,7.327225e+000
1.392777e+003,7.910004e+000
1.393741e+003,8.074158e+000
1.394705e+003,8.125168e+000
1.395670e+003,8.304367e+000
1.396634e+003,8.489426e+000
1.397598e+003,8.415390e+000
1.398562e+003,7.981918e+000
1.399527e+003,7.318146e+000
1.400491e+003,6.509293e+000
1.401455e+003,5.306244e+000
1.402419e+003,3.614944e+000
1.403384e+003,3.490173e+000
1.404348e+003,6.401703e+000
1.405312e+003,7.820374e+000
1.406276e+003,7.041473e+000
1.407240e+003,6.486328e+000
1.408205e+003,7.295364e+000
1.409169e+003,8.594193e+000
1.410133e+003,9.057587e+000
1.411097e+003,8.376022e+000
1.412062e+003,7.362000e+000
1.413026e+003,6.944702e+000
1.413990e+003,7.223236e+000
1.414954e+003,7.527863e+000
1.415919e+003,7.584015e+000
1.416883e+003,7.764221e+000
1.417847e+003,8.167938e+000
1.418811e+003,8.250534e+000
1.419776e+003,7.624756e+000
1.420740e+003,6.755432e+000
1.421704e+003,6.467178e+000
1.422668e+003,6.805511e+000
1.423632e+003,6.634186e+000
1.424597e+003,5.062103e+000
1.425561e+003,3.660660e+000
1.426525e+003,4.591965e+000
1.427489e+003,6.598282e+000
1.428454e+003,8.092133e+000
1.429418e+003,8.884964e+000
1.430382e+003,8.870392e+000
1.431346e+003,7.552795e+000
1.432311e+003,5.744385e+000
1.433275e+003,4.954590e+000
1.434239e+003,5.526337e+000
1.435203e+003,7.063782e+000
1.436167e+003,9.867737e+000
1.437132e+003,1.173845e+001
1.438096e+003,1.118881e+001
1.439060e+003,1.000859e+001
1.440024e+003,9.395752e+000
1.440989e+003,9.332581e+000
1.441953e+003,9.140961e+000
1.442917e+003,8.572495e+000
1.443881e+003,8.347977e+000
1.444846e+003,9.414856e+000
1.445810e+003,1.133861e+001
1.446774e+003,1.169418e+001
1.447738e+003,9.314697e+000
1.448703e+003,7.820587e+000
1.449667e+003,7.684036e+000
1.450631e+003,7.892761e+000
1.451595e+003,8.720200e+000
1.452559e+003,9.649857e+000
1.453524e+003,1.000514e+001
1.454488e+003,9.878494e+000
1.455452e+003,9.898071e+000
1.456416e+003,1.030234e+001
1.457381e+003,1.049475e+001
1.458345e+003,9.653091e+000
1.459309e+003,8.003464e+000
1.460273e+003,7.707184e+000
1.461238e+003,9.702118e+000
1.462202e+003,1.096274e+001
1.463166e+003,1.052780e+001
1.464130e+003,9.835815e+000
1.465094e+003,9.219788e+000
1.466059e+003,8.640976e+000
1.467023e+003,8.503998e+000
1.467987e+003,8.991776e+000
1.468951e+003,9.608688e+000
1.469916e+003,1.019783e+001
1.470880e+003,1.105095e+001
1.471844e+003,1.229390e+001
1.472808e+003,1.315169e+001
1.473773e+003,1.262234e+001
1.474737e+003,1.081322e+001
1.475701e+003,9.443665e+000
1.476665e+003,9.359726e+000
1.477630e+003,1.024266e+001
1.478594e+003,1.196756e+001
1.479558e+003,1.402502e+001
1.480522e+003,1.450519e+001
1.481486e+003,1.286084e+001
1.482451e+003,1.196135e+001
1.483415e+003,1.395175e+001
1.484379e+003,1.624001e+001
1.485343e+003,1.657355e+001
1.486308e+003,1.583446e+001
1.487272e+003,1.530692e+001
1.488236e+003,1.530786e+001
1.489200e+003,1.615034e+001
1.490165e+003,1.839137e+001
1.491129e+003,2.078972e+001
1.492093e+003,2.017958e+001
1.493057e+003,1.629123e+001
1.494021e+003,1.471144e+001
1.494986e+003,1.713776e+001
1.495950e+003,1.974847e+001
1.496914e+003,2.148062e+001
1.497878e+003,2.251903e+001
1.498843e+003,2.253246e+001
1.499807e+003,2.224980e+001
1.500771e+003,2.297842e+001
1.501735e+003,2.491084e+001
1.502700e+003,2.670966e+001
1.503664e+003,2.706303e+001
1.504628e+003,2.651404e+001
1.505592e+003,2.719328e+001
1.506557e+003,2.996016e+001
1.507521e+003,3.183067e+001
1.508485e+003,3.234782e+001
1.509449e+003,3.211517e+001
1.510413e+003,3.029953e+001
1.511378e+003,2.843022e+001
1.512342e+003,2.810382e+001
1.513306e+003,2.872993e+001
1.514270e+003,2.871138e+001
1.515235e+003,2.752499e+001
1.516199e+003,2.594724e+001
1.517163e+003,2.476096e+001
1.518127e+003,2.414297e+001
1.519092e+003,2.448639e+001
1.520056e+003,2.615080e+001
1.521020e+003,2.672073e+001
1.521984e+003,2.619170e+001
1.522948e+003,2.469083e+001
1.523913e+003,2.125325e+001
1.524877e+003,1.809212e+001
1.525841e+003,1.725008e+001
1.526805e+003,1.815434e+001
1.527770e+003,1.920496e+001
1.528734e+003,1.967715e+001
1.529698e+003,1.950597e+001
1.530662e+003,1.881990e+001
1.531627e+003,1.784427e+001
1.532591e+003,1.669769e+001
1.533555e+003,1.534070e+001
1.534519e+003,1.464491e+001
1.535484e+003,1.509041e+001
1.536448e+003,1.560179e+001
1.537412e+003,1.613403e+001
1.538376e+003,1.603949e+001
1.539340e+003,1.399455e+001
1.540305e+003,1.100870e+001
1.541269e+003,1.015419e+001
1.542233e+003,1.215959e+001
1.543197e+003,1.381842e+001
1.544162e+003,1.254550e+001
1.545126e+003,9.983490e+000
1.546090e+003,9.694412e+000
1.547054e+003,1.169539e+001
1.548019e+003,1.343118e+001
1.548983e+003,1.385852e+001
1.549947e+003,1.411522e+001
1.550911e+003,1.525490e+001
1.551875e+003,1.634857e+001
1.552840e+003,1.642474e+001
1.553804e+003,1.586920e+001
1.554768e+003,1.528482e+001
1.555732e+003,1.453424e+001
1.556697e+003,1.366591e+001
1.557661e+003,1.277663e+001
1.558625e+003,1.203218e+001
1.559589e+003,1.185422e+001
1.560554e+003,1.196309e+001
1.561518e+003,1.144499e+001
1.562482e+003,1.004056e+001
1.563446e+003,9.019073e+000
1.564411e+003,9.392822e+000
1.565375e+003,1.037999e+001
1.566339e+003,1.119696e+001
1.567303e+003,1.171367e+001
1.568267e+003,1.127969e+001
1.569232e+003,9.638138e+000
1.570196e+003,8.997803e+000
1.571160e+003,1.119894e+001
1.572124e+003,1.332040e+001
1.573089e+003,1.191815e+001
1.574053e+003,9.064545e+000
1.575017e+003,7.663284e+000
1.575981e+003,7.834518e+000
1.576946e+003,8.602631e+000
1.577910e+003,9.683929e+000
1.578874e+003,1.036043e+001
1.579838e+003,9.747742e+000
1.580802e+003,8.730927e+000
1.581767e+003,9.434662e+000
1.582731e+003,1.183499e+001
1.583695e+003,1.334668e+001
1.584659e+003,1.282790e+001
1.585624e+003,1.190701e+001
1.586588e+003,1.258189e+001
1.587552e+003,1.367450e+001
1.588516e+003,1.304054e+001
1.589481e+003,1.108925e+001
1.590445e+003,1.048653e+001
1.591409e+003,1.225813e+001
1.592373e+003,1.401332e+001
1.593338e+003,1.333850e+001
1.594302e+003,1.132379e+001
1.595266e+003,1.056035e+001
1.596230e+003,1.106506e+001
1.597194e+003,1.140408e+001
1.598159e+003,1.105180e+001
1.599123e+003,1.069902e+001
1.600087e+003,1.111580e+001
1.601051e+003,1.151509e+001
1.602016e+003,1.090935e+001
1.602980e+003,9.631165e+000
1.603944e+003,8.606766e+000
1.604908e+003,8.253418e+000
1.605873e+003,8.694778e+000
1.606837e+003,1.028726e+001
1.607801e+003,1.219637e+001
1.608765e+003,1.269258e+001
1.609729e+003,1.172693e+001
1.610694e+003,1.107538e+001
1.611658e+003,1.124066e+001
1.612622e+003,1.097993e+001
1.613586e+003,9.326492e+000
1.614551e+003,8.328857e+000
1.615515e+003,9.514450e+000
1.616479e+003,1.153427e+001
1.617443e+003,1.308339e+001
1.618408e+003,1.402654e+001
1.619372e+003,1.451802e+001
1.620336e+003,1.474474e+001
1.621300e+003,1.448445e+001
1.622265e+003,1.259926e+001
1.623229e+003,1.001047e+001
1.624193e+003,1.026402e+001
1.625157e+003,1.348193e+001
1.626121e+003,1.539229e+001
1.627086e+003,1.473769e+001
1.628050e+003,1.373921e+001
1.629014e+003,1.347823e+001
1.629978e+003,1.338885e+001
1.630943e+003,1.313373e+001
1.631907e+003,1.275749e+001
1.632871e+003,1.244760e+001
1.633835e+003,1.236824e+001
1.634800e+003,1.219170e+001
1.635764e+003,1.130386e+001
1.636728e+003,1.074536e+001
1.637692e+003,1.244437e+001
1.638656e+003,1.557983e+001
1.639621e+003,1.679256e+001
1.640585e+003,1.555504e+001
1.641549e+003,1.390495e+001
1.642513e+003,1.252789e+001
1.643478e+003,1.206538e+001
1.644442e+003,1.373630e+001
1.645406e+003,1.576053e+001
1.646370e+003,1.536447e+001
1.647335e+003,1.284036e+001
1.648299e+003,1.128438e+001
1.649263e+003,1.197017e+001
1.650227e+003,1.325165e+001
1.651192e+003,1.407465e+001
1.652156e+003,1.446336e+001
1.653120e+003,1.428206e+001
1.654084e+003,1.365685e+001
1.655048e+003,1.314992e+001
1.656013e+003,1.275438e+001
1.656977e+003,1.319582e+001
1.657941e+003,1.550468e+001
1.658905e+003,1.753065e+001
1.659870e+003,1.595560e+001
1.660834e+003,1.279294e+001
1.661798e+003,1.223564e+001
1.662762e+003,1.459576e+001
1.663727e+003,1.688049e+001
1.664691e+003,1.841400e+001
1.665655e+003,1.875513e+001
1.666619e+003,1.651982e+001
1.667583e+003,1.345012e+001
1.668548e+003,1.314798e+001
1.669512e+003,1.528824e+001
1.670476e+003,1.627266e+001
1.671440e+003,1.504863e+001
1.672405e+003,1.390250e+001
1.673369e+003,1.436511e+001
1.674333e+003,1.568851e+001
1.675297e+003,1.667548e+001
1.676262e+003,1.737550e+001
1.677226e+003,1.827110e+001
1.678190e+003,1.958423e+001
1.679154e+003,2.047005e+001
1.680119e+003,2.079117e+001
1.681083e+003,2.033286e+001
1.682047e+003,1.824254e+001
1.683011e+003,1.568614e+001
1.683975e+003,1.481371e+001
1.684940e+003,1.577953e+001
1.685904e+003,1.730869e+001
1.686868e+003,1.880952e+001
1.687832e+003,2.042415e+001
1.688797e+003,2.234546e+001
1.689761e+003,2.392703e+001
1.690725e+003,2.382845e+001
1.691689e+003,2.189500e+001
1.692654e+003,2.100929e+001
1.693618e+003,2.240538e+001
1.694582e+003,2.358638e+001
1.695546e+003,2.282211e+001
1.696510e+003,2.204059e+001
1.697475e+003,2.352254e+001
1.698439e+003,2.594356e+001
1.699403e+003,2.666653e+001
1.700367e+003,2.576260e+001
1.701332e+003,2.543771e+001
1.702296e+003,2.673027e+001
1.703260e+003,2.859872e+001
1.704224e+003,2.978549e+001
1.705189e+003,3.042207e+001
1.706153e+003,3.170673e+001
1.707117e+003,3.412236e+001
1.708081e+003,3.464944e+001
1.709046e+003,3.278786e+001
1.710010e+003,3.158989e+001
1.710974e+003,3.075667e+001
1.711938e+003,3.042278e+001
1.712902e+003,3.123421e+001
1.713867e+003,3.213998e+001
1.714831e+003,3.152655e+001
1.715795e+003,3.009633e+001
1.716759e+003,3.061563e+001
1.717724e+003,3.416696e+001
1.718688e+003,3.802231e+001
1.719652e+003,3.884331e+001
1.720616e+003,3.727782e+001
1.721581e+003,3.648589e+001
1.722545e+003,3.680724e+001
1.723509e+003,3.661586e+001
1.724473e+003,3.554964e+001
1.725438e+003,3.476715e+001
1.726402e+003,3.439488e+001
1.727366e+003,3.416597e+001
1.728330e+003,3.413483e+001
1.729294e+003,3.430136e+001
1.730259e+003,3.456004e+001
1.731223e+003,3.497462e+001
1.732187e+003,3.594011e+001
1.733151e+003,3.753467e+001
1.734116e+003,3.847598e+001
1.735080e+003,3.738359e+001
1.736044e+003,3.531157e+001
1.737008e+003,3.419395e+001
1.737973e+003,3.382623e+001
1.738937e+003,3.371680e+001
1.739901e+003,3.393475e+001
1.740865e+003,3.376727e+001
1.741829e+003,3.262041e+001
1.742794e+003,3.170053e+001
1.743758e+003,3.241408e+001
1.744722e+003,3.389960e+001
1.745686e+003,3.479863e+001
1.746651e+003,3.509938e+001
1.747615e+003,3.549768e+001
1.748579e+003,3.625742e+001
1.749543e+003,3.648442e+001
1.750508e+003,3.531921e+001
1.751472e+003,3.394272e+001
1.752436e+003,3.359044e+001
1.753400e+003,3.375378e+001
1.754365e+003,3.325826e+001
1.755329e+003,3.216212e+001
1.756293e+003,3.199196e+001
1.757257e+003,3.350058e+001
1.758221e+003,3.478256e+001
1.759186e+003,3.374979e+001
1.760150e+003,3.187361e+001
1.761114e+003,3.286012e+001
1.762078e+003,3.680748e+001
1.763043e+003,3.853482e+001
1.764007e+003,3.681685e+001
1.764971e+003,3.467448e+001
1.765935e+003,3.218777e+001
1.766900e+003,3.079224e+001
1.767864e+003,3.212416e+001
1.768828e+003,3.401842e+001
1.769792e+003,3.353748e+001
1.770756e+003,3.137717e+001
1.771721e+003,3.013231e+001
1.772685e+003,3.052808e+001
1.773649e+003,3.144550e+001
1.774613e+003,3.224677e+001
1.775578e+003,3.300769e+001
1.776542e+003,3.339441e+001
1.777506e+003,3.330774e+001
1.778470e+003,3.249597e+001
1.779435e+003,3.014201e+001
1.780399e+003,2.904588e+001
1.781363e+003,3.099214e+001
1.782327e+003,3.289966e+001
1.783292e+003,3.313211e+001
1.784256e+003,3.261464e+001
1.785220e+003,3.276347e+001
1.786184e+003,3.302736e+001
1.787148e+003,3.136880e+001
1.788113e+003,2.771812e+001
1.789077e+003,2.505019e+001
1.790041e+003,2.507333e+001
1.791005e+003,2.596605e+001
1.791970e+003,2.635687e+001
1.792934e+003,2.637671e+001
1.793898e+003,2.545355e+001
1.794862e+003,2.388202e+001
1.795827e+003,2.433728e+001
1.796791e+003,2.736821e+001
1.797755e+003,2.947325e+001
1.798719e+003,2.884488e+001
1.799683e+003,2.726288e+001
1.800648e+003,2.628282e+001
1.801612e+003,2.568381e+001
1.802576e+003,2.516132e+001
1.803540e+003,2.462749e+001
1.804505e+003,2.447914e+001
1.805469e+003,2.635069e+001
1.806433e+003,2.716606e+001
1.807397e+003,2.379469e+001
1.808362e+003,2.090402e+001
1.809326e+003,2.274962e+001
1.810290e+003,2.641022e+001
1.811254e+003,2.772705e+001
1.812219e+003,2.689478e+001
1.813183e+003,2.640027e+001
1.814147e+003,2.688019e+001
1.815111e+003,2.661267e+001
1.816075e+003,2.442076e+001
1.817040e+003,2.195341e+001
1.818004e+003,2.211673e+001
1.818968e+003,2.473596e+001
1.819932e+003,2.550949e+001
1.820897e+003,2.261305e+001
1.821861e+003,2.198228e+001
1.822825e+003,2.707832e+001
1.823789e+003,3.035735e+001
1.824754e+003,2.793739e+001
1.825718e+003,2.492793e+001
1.826682e+003,2.454295e+001
1.827646e+003,2.543036e+001
1.828610e+003,2.543544e+001
1.829575e+003,2.455879e+001
1.830539e+003,2.435538e+001
1.831503e+003,2.559065e+001
1.832467e+003,2.666542e+001
1.833432e+003,2.596950e+001
1.834396e+003,2.452820e+001
1.835360e+003,2.399420e+001
1.836324e+003,2.436363e+001
1.837289e+003,2.490927e+001
1.838253e+003,2.513129e+001
1.839217e+003,2.456467e+001
1.840181e+003,2.315584e+001
1.841146e+003,2.206071e+001
1.842110e+003,2.235457e+001
1.843074e+003,2.363425e+001
1.844038e+003,2.486150e+001
1.845002e+003,2.594855e+001
1.845967e+003,2.680159e+001
1.846931e+003,2.700058e+001
1.847895e+003,2.800383e+001
1.848859e+003,3.054637e+001
1.849824e+003,3.184668e+001
1.850788e+003,3.014476e+001
1.851752e+003,2.850383e+001
1.852716e+003,3.034616e+001
1.853681e+003,3.359439e+001
1.854645e+003,3.430421e+001
1.855609e+003,3.223901e+001
1.856573e+003,2.975980e+001
1.857537e+003,2.790608e+001
1.858502e+003,2.680284e+001
1.859466e+003,2.737393e+001
1.860430e+003,2.874644e+001
1.861394e+003,2.751685e+001
1.862359e+003,2.422946e+001
1.863323e+003,2.456316e+001
1.864287e+003,2.898708e+001
1.865251e+003,3.195900e+001
1.866216e+003,3.215436e+001
1.867180e+003,3.146555e+001
1.868144e+003,3.013228e+001
1.869108e+003,2.890390e+001
1.870073e+003,2.960139e+001
1.871037e+003,3.175827e+001
1.872001e+003,3.260529e+001
1.872965e+003,3.214287e+001
1.873929e+003,3.122636e+001
1.874894e+003,2.847554e+001
1.875858e+003,2.667981e+001
1.876822e+003,2.808969e+001
1.877786e+003,2.976894e+001
1.878751e+003,2.898752e+001
1.879715e+003,2.755528e+001
1.880679e+003,2.842000e+001
1.881643e+003,3.091031e+001
1.882608e+003,3.216284e+001
1.883572e+003,3.134918e+001
1.884536e+003,3.016200e+001
1.885500e+003,2.985194e+001
1.886464e+003,2.982709e+001
1.887429e+003,2.937265e+001
1.888393e+003,2.881880e+001
1.889357e+003,2.861049e+001
1.890321e+003,2.863849e+001
1.891286e+003,2.840924e+001
1.892250e+003,2.747134e+001
1.893214e+003,2.737421e+001
1.894178e+003,2.977911e+001
1.895143e+003,3.215364e+001
1.896107e+003,3.147711e+001
1.897071e+003,2.938889e+001
1.898035e+003,2.949228e+001
1.899000e+003,3.105965e+001
1.899964e+003,3.110262e+001
1.900928e+003,3.007324e+001
1.901892e+003,2.868024e+001
1.902856e+003,2.473964e+001
1.903821e+003,2.237550e+001
1.904785e+003,2.490517e+001
1.905749e+003,2.848898e+001
1.906713e+003,3.024086e+001
1.907678e+003,3.063783e+001
1.908642e+003,3.033881e+001
1.909606e+003,2.964978e+001
1.910570e+003,2.916934e+001
1.911535e+003,2.925470e+001
1.912499e+003,2.969092e+001
1.913463e+003,3.008871e+001
1.914427e+003,3.008754e+001
1.915391e+003,2.943222e+001
1.916356e+003,2.859859e+001
1.917320e+003,2.882028e+001
1.918284e+003,3.027383e+001
1.919248e+003,3.172253e+001
1.920213e+003,3.260876e+001
1.921177e+003,3.236136e+001
1.922141e+003,3.058273e+001
1.923105e+003,2.848112e+001
1.924070e+003,2.692491e+001
1.925034e+003,2.608493e+001
1.925998e+003,2.707938e+001
1.926962e+003,2.999831e+001
1.927927e+003,3.074513e+001
1.928891e+003,2.713849e+001
1.929855e+003,2.525259e+001
1.930819e+003,2.784297e+001
1.931783e+003,2.985899e+001
1.932748e+003,2.810397e+001
1.933712e+003,2.580589e+001
1.934676e+003,2.653964e+001
1.935640e+003,2.862437e+001
1.936605e+003,2.831793e+001
1.937569e+003,2.544028e+001
1.938533e+003,2.300711e+001
1.939497e+003,2.274384e+001
1.940462e+003,2.343494e+001
1.941426e+003,2.354323e+001
1.942390e+003,2.328094e+001
1.943354e+003,2.332957e+001
1.944318e+003,2.332910e+001
1.945283e+003,2.283488e+001
1.946247e+003,2.229185e+001
1.947211e+003,2.229439e+001
1.948175e+003,2.296382e+001
1.949140e+003,2.368883e+001
1.950104e+003,2.379408e+001
1.951068e+003,2.368903e+001
1.952032e+003,2.419948e+001
1.952997e+003,2.518256e+001
1.953961e+003,2.583662e+001
1.954925e+003,2.610379e+001
1.955889e+003,2.632959e+001
1.956854e+003,2.720709e+001
1.957818e+003,2.692032e+001
1.958782e+003,2.396182e+001
1.959746e+003,2.212840e+001
1.960710e+003,2.248253e+001
1.961675e+003,2.342636e+001
1.962639e+003,2.516130e+001
1.963603e+003,2.657668e+001
1.964567e+003,2.517581e+001
1.965532e+003,2.165533e+001
1.966496e+003,1.992523e+001
1.967460e+003,2.121164e+001
1.968424e+003,2.296875e+001
1.969389e+003,2.418639e+001
1.970353e+003,2.480542e+001
1.971317e+003,2.469408e+001
1.972281e+003,2.411523e+001
1.973245e+003,2.260942e+001
1.974210e+003,2.131694e+001
1.975174e+003,2.323247e+001
1.976138e+003,2.775630e+001
1.977102e+003,3.079128e+001
1.978067e+003,3.054924e+001
1.979031e+003,2.822940e+001
1.979995e+003,2.490666e+001
1.980959e+003,2.157687e+001
1.981924e+003,2.015163e+001
1.982888e+003,2.047707e+001
1.983852e+003,2.043298e+001
1.984816e+003,1.977972e+001
1.985781e+003,2.071249e+001
1.986745e+003,2.420598e+001
1.987709e+003,2.670824e+001
1.988673e+003,2.657892e+001
1.989637e+003,2.520226e+001
1.990602e+003,2.294208e+001
1.991566e+003,2.076303e+001
1.992530e+003,2.061626e+001
1.993494e+003,2.248186e+001
1.994459e+003,2.436928e+001
1.995423e+003,2.635426e+001
1.996387e+003,2.687895e+001
1.997351e+003,2.478879e+001
1.998316e+003,2.259386e+001
1.999280e+003,2.023215e+001
2.000244e+003,1.919362e+001
2.001208e+003,2.068330e+001
2.002172e+003,2.327588e+001
2.003137e+003,2.625739e+001
2.004101e+003,2.863998e+001
2.005065e+003,2.899153e+001
2.006029e+003,2.749815e+001
2.006994e+003,2.582404e+001
2.007958e+003,2.429619e+001
2.008922e+003,2.331976e+001
2.009886e+003,2.436681e+001
2.010851e+003,2.571312e+001
2.011815e+003,2.444357e+001
2.012779e+003,2.259244e+001
2.013743e+003,2.417270e+001
2.014708e+003,2.767076e+001
2.015672e+003,2.854839e+001
2.016636e+003,2.653052e+001
2.017600e+003,2.493669e+001
2.018564e+003,2.513901e+001
2.019529e+003,2.535281e+001
2.020493e+003,2.408473e+001
2.021457e+003,2.228200e+001
2.022421e+003,2.126231e+001
2.023386e+003,2.084160e+001
2.024350e+003,2.087573e+001
2.025314e+003,2.141794e+001
2.026278e+003,2.313252e+001
2.027243e+003,2.635013e+001
2.028207e+003,2.853058e+001
2.029171e+003,2.864333e+001
2.030135e+003,2.777171e+001
2.031099e+003,2.648082e+001
2.032064e+003,2.498528e+001
2.033028e+003,2.340535e+001
2.033992e+003,2.171277e+001
2.034956e+003,2.144577e+001
2.035921e+003,2.394881e+001
2.036885e+003,2.502309e+001
2.037849e+003,2.301160e+001
2.038813e+003,2.278189e+001
2.039778e+003,2.504723e+001
2.040742e+003,2.695888e+001
2.041706e+003,2.868117e+001
2.042670e+003,2.971487e+001
2.043635e+003,2.923959e+001
2.044599e+003,2.784477e+001
2.045563e+003,2.612256e+001
2.046527e+003,2.444205e+001
2.047491e+003,2.427879e+001
2.048456e+003,2.649452e+001
2.049420e+003,2.823637e+001
2.050384e+003,2.845662e+001
2.051348e+003,2.723996e+001
2.052313e+003,2.262643e+001
2.053277e+003,1.932095e+001
2.054241e+003,2.286209e+001
2.055205e+003,2.886459e+001
2.056170e+003,3.129616e+001
2.057134e+003,3.002272e+001
2.058098e+003,2.721774e+001
2.059062e+003,2.420876e+001
2.060027e+003,2.269017e+001
2.060991e+003,2.357040e+001
2.061955e+003,2.483868e+001
2.062919e+003,2.434201e+001
2.063884e+003,2.333771e+001
2.064848e+003,2.388918e+001
2.065812e+003,2.539363e+001
2.066776e+003,2.616470e+001
2.067740e+003,2.614696e+001
2.068705e+003,2.663452e+001
2.069669e+003,2.756586e+001
2.070633e+003,2.665376e+001
2.071597e+003,2.306355e+001
2.072562e+003,1.998323e+001
2.073526e+003,2.056552e+001
2.074490e+003,2.286111e+001
2.075454e+003,2.258449e+001
2.076418e+003,2.039178e+001
2.077383e+003,2.006688e+001
2.078347e+003,2.111874e+001
2.079311e+003,2.198297e+001
2.080275e+003,2.317270e+001
2.081240e+003,2.351718e+001
2.082204e+003,2.214093e+001
2.083168e+003,2.134042e+001
2.084132e+003,2.257500e+001
2.085096e+003,2.381213e+001
2.086061e+003,2.295320e+001
2.087025e+003,2.091714e+001
2.087989e+003,1.962672e+001
2.088953e+003,1.906642e+001
2.089918e+003,1.949654e+001
2.090882e+003,2.129317e+001
2.091846e+003,2.221913e+001
2.092810e+003,2.171381e+001
2.093775e+003,2.159557e+001
2.094739e+003,2.290451e+001
2.095703e+003,2.331224e+001
2.096667e+003,2.065799e+001
2.097632e+003,1.708105e+001
2.098596e+003,1.548955e+001
2.099560e+003,1.584920e+001
2.100524e+003,1.714084e+001
2.101489e+003,1.937262e+001
2.102453e+003,2.012947e+001
2.103417e+003,1.813936e+001
2.104381e+003,1.730728e+001
2.105345e+003,1.962448e+001
2.106310e+003,2.089922e+001
2.107274e+003,1.834654e+001
2.108238e+003,1.593541e+001
2.109202e+003,1.652812e+001
2.110167e+003,1.855119e+001
2.111131e+003,2.021057e+001
2.112095e+003,2.109692e+001
2.113059e+003,2.069847e+001
2.114023e+003,1.936630e+001
2.114988e+003,1.912158e+001
2.115952e+003,2.044231e+001
2.116916e+003,2.077980e+001
2.117880e+003,1.910106e+001
2.118845e+003,1.722246e+001
2.119809e+003,1.633142e+001
2.120773e+003,1.642654e+001
2.121737e+003,1.746678e+001
2.122702e+003,1.844659e+001
2.123666e+003,1.765077e+001
2.124630e+003,1.557722e+001
2.125594e+003,1.532004e+001
2.126559e+003,1.787866e+001
2.127523e+003,1.920282e+001
2.128487e+003,1.647844e+001
2.129451e+003,1.433635e+001
2.130416e+003,1.558365e+001
2.131380e+003,1.738271e+001
2.132344e+003,1.761078e+001
2.133308e+003,1.726765e+001
2.134272e+003,1.786034e+001
2.135237e+003,1.850563e+001
2.136201e+003,1.716209e+001
2.137165e+003,1.435555e+001
2.138129e+003,1.294322e+001
2.139094e+003,1.398938e+001
2.140058e+003,1.540224e+001
2.141022e+003,1.564746e+001
2.141986e+003,1.535756e+001
2.142950e+003,1.520041e+001
2.143915e+003,1.512943e+001
2.144879e+003,1.507651e+001
2.145843e+003,1.477396e+001
2.146807e+003,1.356839e+001
2.147772e+003,1.241231e+001
2.148736e+003,1.360106e+001
2.149700e+003,1.650223e+001
2.150664e+003,1.720544e+001
2.151629e+003,1.428600e+001
2.152593e+003,1.154367e+001
2.153557e+003,1.230432e+001
2.154521e+003,1.389371e+001
2.155486e+003,1.247565e+001
2.156450e+003,1.006560e+001
2.157414e+003,1.027657e+001
2.158378e+003,1.185086e+001
2.159343e+003,1.203496e+001
2.160307e+003,1.104138e+001
2.161271e+003,1.032654e+001
2.162235e+003,1.014784e+001
2.163199e+003,9.995132e+000
2.164164e+003,9.686615e+000
2.165128e+003,9.374847e+000
2.166092e+003,9.162506e+000
2.167056e+003,9.284744e+000
2.168021e+003,1.008771e+001
2.168985e+003,1.081651e+001
2.169949e+003,1.029385e+001
2.170913e+003,9.219269e+000
2.171877e+003,9.138245e+000
2.172842e+003,1.007114e+001
2.173806e+003,1.123480e+001
2.174770e+003,1.216116e+001
2.175734e+003,1.247282e+001
2.176699e+003,1.195728e+001
2.177663e+003,1.031892e+001
2.178627e+003,7.148193e+000
2.179591e+003,4.611649e+000
2.180556e+003,6.828751e+000
2.181520e+003,1.101051e+001
2.182484e+003,1.093550e+001
2.183448e+003,8.262405e+000
2.184413e+003,6.881226e+000
2.185377e+003,6.941895e+000
2.186341e+003,7.692154e+000
2.187305e+003,8.720078e+000
2.188270e+003,9.364960e+000
2.189234e+003,9.503372e+000
2.190198e+003,9.874557e+000
2.191162e+003,1.087160e+001
2.192126e+003,1.098650e+001
2.193091e+003,7.774536e+000
2.194055e+003,3.330750e+000
2.195019e+003,2.657364e+000
2.195983e+003,4.436188e+000
2.196948e+003,3.966354e+000
2.197912e+003,1.728317e+000
2.198876e+003,1.343124e+000
2.199840e+003,3.034180e+000
2.200804e+003,4.356995e+000
2.201769e+003,4.394363e+000
2.202733e+003,4.587540e+000
2.203697e+003,6.157043e+000
2.204661e+003,7.648788e+000
2.205626e+003,6.737885e+000
2.206590e+003,4.806046e+000
2.207554e+003,4.579025e+000
2.208518e+003,5.151932e+000
2.209483e+003,4.738113e+000
2.210447e+003,3.686142e+000
2.211411e+003,3.012466e+000
2.212375e+003,2.821747e+000
2.213340e+003,2.849167e+000
2.214304e+003,2.983276e+000
2.215268e+003,2.767960e+000
2.216232e+003,1.775757e+000
2.217197e+003,1.491760e+000
2.218161e+003,4.403870e+000
2.219125e+003,7.878357e+000
2.220089e+003,6.567627e+000
2.221053e+003,3.079147e+000
2.222018e+003,2.491196e+000
2.222982e+003,3.708099e+000
2.223946e+003,4.976593e+000
2.224910e+003,5.908279e+000
2.225875e+003,4.642334e+000
2.226839e+003,1.351532e+000
2.227803e+003,0.000000e+000
2.228767e+003,2.403046e+000
2.229731e+003,5.494980e+000
2.230696e+003,6.959610e+000
2.231660e+003,7.093506e+000
2.232624e+003,5.874405e+000
2.233588e+003,4.392487e+000
2.234553e+003,4.174896e+000
2.235517e+003,4.534958e+000
2.236481e+003,3.586594e+000
2.237445e+003,1.948410e+000
2.238410e+003,2.753998e+000
2.239374e+003,5.929382e+000
2.240338e+003,8.190536e+000
2.241302e+003,8.186066e+000
2.242267e+003,6.462540e+000
2.243231e+003,3.116516e+000
2.244195e+003,2.830505e-001
2.245159e+003,3.385010e-001
2.246124e+003,1.534958e+000
2.247088e+003,2.146515e+000
2.248052e+003,2.367920e+000
2.249016e+003,2.696915e+000
2.249980e+003,3.128876e+000
2.250945e+003,3.588242e+000
2.251909e+003,3.970398e+000
2.252873e+003,3.491776e+000
2.253837e+003,2.146988e+000
2.254802e+003,1.764511e+000
2.255766e+003,3.412521e+000
2.256730e+003,5.376572e+000
2.257694e+003,6.515289e+000
2.258658e+003,7.058075e+000
2.259623e+003,7.015335e+000
2.260587e+003,6.701294e+000
2.261551e+003,6.575012e+000
2.262515e+003,6.327377e+000
2.263480e+003,5.292191e+000
2.264444e+003,4.096909e+000
2.265408e+003,3.581558e+000
2.266372e+003,3.684372e+000
2.267337e+003,4.443970e+000
2.268301e+003,5.942398e+000
2.269265e+003,6.436890e+000
2.270229e+003,4.642838e+000
2.271194e+003,4.496475e+000
2.272158e+003,8.513580e+000
2.273122e+003,1.178714e+001
2.274086e+003,1.166830e+001
2.275051e+003,1.018173e+001
2.276015e+003,8.528091e+000
2.276979e+003,7.399445e+000
2.277943e+003,7.283340e+000
2.278907e+003,7.810486e+000
2.279872e+003,8.301620e+000
2.280836e+003,8.480545e+000
2.281800e+003,8.363831e+000
2.282764e+003,8.334686e+000
2.283729e+003,7.965698e+000
2.284693e+003,6.481003e+000
2.285657e+003,6.255249e+000
2.286621e+003,8.141632e+000
2.287585e+003,9.740158e+000
2.288550e+003,1.040501e+001
2.289514e+003,1.071741e+001
2.290478e+003,1.080939e+001
2.291442e+003,1.098024e+001
2.292407e+003,1.136581e+001
2.293371e+003,1.189755e+001
2.294335e+003,1.339584e+001
2.295299e+003,1.646022e+001
2.296264e+003,1.691376e+001
2.297228e+003,1.342668e+001
2.298192e+003,1.083432e+001
2.299156e+003,9.087738e+000
2.300121e+003,1.018085e+001
2.301085e+003,1.601669e+001
2.302049e+003,2.017841e+001
2.303013e+003,1.851688e+001
2.303978e+003,1.549693e+001
2.304942e+003,1.587811e+001
2.305906e+003,1.796913e+001
2.306870e+003,1.802069e+001
2.307834e+003,1.636604e+001
2.308799e+003,1.621046e+001
2.309763e+003,1.785329e+001
2.310727e+003,1.975386e+001
2.311691e+003,2.168190e+001
2.312656e+003,2.244092e+001
2.313620e+003,2.181665e+001
2.314584e+003,2.077296e+001
2.315548e+003,1.969708e+001
2.316512e+003,1.933517e+001
2.317477e+003,2.041359e+001
2.318441e+003,2.237004e+001
2.319405e+003,2.419637e+001
2.320369e+003,2.566228e+001
2.321334e+003,2.556837e+001
2.322298e+003,2.478229e+001
2.323262e+003,2.839845e+001
2.324226e+003,3.513663e+001
2.325191e+003,3.888170e+001
2.326155e+003,3.975450e+001
2.327119e+003,4.156042e+001
2.328083e+003,4.449420e+001
2.329048e+003,4.542065e+001
2.330012e+003,4.369490e+001
2.330976e+003,4.253029e+001
2.331940e+003,4.362085e+001
2.332905e+003,4.448930e+001
2.333869e+003,4.266055e+001
2.334833e+003,4.079182e+001
2.335797e+003,4.158527e+001
2.336761e+003,4.371170e+001
2.337726e+003,4.575394e+001
2.338690e+003,4.715704e+001
2.339654e+003,4.748000e+001
2.340618e+003,4.760759e+001
2.341583e+003,4.926672e+001
2.342547e+003,5.223329e+001
2.343511e+003,5.396060e+001
2.344475e+003,5.351013e+001
2.345439e+003,5.406818e+001
2.346404e+003,5.793385e+001
2.347368e+003,6.055415e+001
2.348332e+003,5.971655e+001
2.349296e+003,5.940564e+001
2.350261e+003,6.129924e+001
2.351225e+003,6.427615e+001
2.352189e+003,6.728593e+001
2.353153e+003,7.051126e+001
2.354118e+003,7.529285e+001
2.355082e+003,8.007700e+001
2.356046e+003,8.130873e+001
2.357010e+003,7.977225e+001
2.357975e+003,8.045093e+001
2.358939e+003,8.388075e+001
2.359903e+003,8.670251e+001
2.360867e+003,8.780891e+001
2.361832e+003,8.969485e+001
2.362796e+003,9.373344e+001
2.363760e+003,9.722099e+001
2.364724e+003,9.930791e+001
2.365688e+003,1.018089e+002
2.366653e+003,1.052359e+002
2.367617e+003,1.086730e+002
2.368581e+003,1.117038e+002
2.369545e+003,1.142582e+002
2.370510e+003,1.158647e+002
2.371474e+003,1.169838e+002
2.372438e+003,1.186130e+002
2.373402e+003,1.206008e+002
2.374366e+003,1.230224e+002
2.375331e+003,1.257994e+002
2.376295e+003,1.284634e+002
2.377259e+003,1.309281e+002
2.378223e+003,1.331606e+002
2.379188e+003,1.351468e+002
2.380152e+003,1.372635e+002
2.381116e+003,1.397310e+002
2.382080e+003,1.412727e+002
2.383045e+003,1.402275e+002
2.384009e+003,1.393058e+002
2.384973e+003,1.422334e+002
2.385937e+003,1.453581e+002
2.386902e+003,1.450363e+002
2.387866e+003,1.439270e+002
2.388830e+003,1.439337e+002
2.389794e+003,1.446631e+002
2.390759e+003,1.459632e+002
2.391723e+003,1.473900e+002
2.392687e+003,1.484130e+002
2.393651e+003,1.493334e+002
2.394615e+003,1.502995e+002
2.395580e+003,1.508103e+002
2.396544e+003,1.519773e+002
2.397508e+003,1.543151e+002
2.398472e+003,1.565480e+002
2.399437e+003,1.594643e+002
2.400401e+003,1.614576e+002
2.401365e+003,1.615514e+002
2.402329e+003,1.608688e+002
2.403293e+003,1.595123e+002
2.404258e+003,1.586303e+002
2.405222e+003,1.598688e+002
2.406186e+003,1.624433e+002
2.407150e+003,1.641818e+002
2.408115e+003,1.650874e+002
2.409079e+003,1.659359e+002
2.410043e+003,1.666788e+002
2.411007e+003,1.669419e+002
2.411972e+003,1.668881e+002
2.412936e+003,1.674144e+002
2.413900e+003,1.683891e+002
2.414864e+003,1.696445e+002
2.415829e+003,1.713392e+002
2.416793e+003,1.730333e+002
2.417757e+003,1.742739e+002
2.418721e+003,1.749470e+002
2.419686e+003,1.750716e+002
2.420650e+003,1.751200e+002
2.421614e+003,1.755575e+002
2.422578e+003,1.759040e+002
2.423542e+003,1.747515e+002
2.424507e+003,1.739664e+002
2.425471e+003,1.772441e+002
2.426435e+003,1.814883e+002
2.427399e+003,1.817339e+002
2.428364e+003,1.790692e+002
2.429328e+003,1.769178e+002
2.430292e+003,1.761291e+002
2.431256e+003,1.763952e+002
2.432220e+003,1.777235e+002
2.433185e+003,1.784393e+002
2.434149e+003,1.782885e+002
2.435113e+003,1.766554e+002
2.436077e+003,1.722003e+002
2.437042e+003,1.694150e+002
2.438006e+003,1.699779e+002
2.438970e+003,1.705516e+002
2.439934e+003,1.698313e+002
2.440899e+003,1.680559e+002
2.441863e+003,1.652951e+002
2.442827e+003,1.627642e+002
2.443791e+003,1.618333e+002
2.444756e+003,1.618977e+002
2.445720e+003,1.623404e+002
2.446684e+003,1.628956e+002
2.447648e+003,1.618307e+002
2.448613e+003,1.597092e+002
2.449577e+003,1.587764e+002
2.450541e+003,1.585616e+002
2.451505e+003,1.563263e+002
2.452469e+003,1.525114e+002
2.453434e+003,1.505233e+002
2.454398e+003,1.506176e+002
2.455362e+003,1.497846e+002
2.456326e+003,1.474235e+002
2.457291e+003,1.450563e+002
2.458255e+003,1.419231e+002
2.459219e+003,1.401247e+002
2.460183e+003,1.417310e+002
2.461147e+003,1.426915e+002
2.462112e+003,1.413901e+002
2.463076e+003,1.395418e+002
2.464040e+003,1.370201e+002
2.465004e+003,1.346088e+002
2.465969e+003,1.345563e+002
2.466933e+003,1.357830e+002
2.467897e+003,1.349731e+002
2.468861e+003,1.322014e+002
2.469826e+003,1.312445e+002
2.470790e+003,1.326390e+002
2.471754e+003,1.318645e+002
2.472718e+003,1.289471e+002
2.473683e+003,1.278001e+002
2.474647e+003,1.282400e+002
2.475611e+003,1.272312e+002
2.476575e+003,1.245810e+002
2.477540e+003,1.227812e+002
2.478504e+003,1.225850e+002
2.479468e+003,1.218407e+002
2.480432e+003,1.191057e+002
2.481396e+003,1.167907e+002
2.482361e+003,1.177257e+002
2.483325e+003,1.200964e+002
2.484289e+003,1.224219e+002
2.485253e+003,1.235571e+002
2.486218e+003,1.220968e+002
2.487182e+003,1.195522e+002
2.488146e+003,1.174642e+002
2.489110e+003,1.159812e+002
2.490074e+003,1.150175e+002
2.491039e+003,1.145944e+002
2.492003e+003,1.143402e+002
2.492967e+003,1.136389e+002
2.493931e+003,1.128648e+002
2.494896e+003,1.126339e+002
2.495860e+003,1.122275e+002
2.496824e+003,1.112860e+002
2.497788e+003,1.121101e+002
2.498753e+003,1.151131e+002
2.499717e+003,1.171363e+002
2.500681e+003,1.174951e+002
2.501645e+003,1.173455e+002
2.502610e+003,1.170777e+002
2.503574e+003,1.158706e+002
2.504538e+003,1.132588e+002
2.505502e+003,1.112606e+002
2.506467e+003,1.122505e+002
2.507431e+003,1.138030e+002
2.508395e+003,1.122767e+002
2.509359e+003,1.104055e+002
2.510323e+003,1.123237e+002
2.511288e+003,1.152144e+002
2.512252e+003,1.154092e+002
2.513216e+003,1.138017e+002
2.514180e+003,1.115923e+002
2.515145e+003,1.096736e+002
2.516109e+003,1.099283e+002
2.517073e+003,1.122688e+002
2.518037e+003,1.130143e+002
2.519001e+003,1.108391e+002
2.519966e+003,1.108290e+002
2.520930e+003,1.142829e+002
2.521894e+003,1.161769e+002
2.522858e+003,1.159130e+002
2.523823e+003,1.149777e+002
2.524787e+003,1.136677e+002
2.525751e+003,1.116908e+002
2.526715e+003,1.089175e+002
2.527680e+003,1.075161e+002
2.528644e+003,1.092695e+002
2.529608e+003,1.116240e+002
2.530572e+003,1.108023e+002
2.531537e+003,1.094207e+002
2.532501e+003,1.128676e+002
2.533465e+003,1.170547e+002
2.534429e+003,1.169628e+002
2.535394e+003,1.147314e+002
2.536358e+003,1.115472e+002
2.537322e+003,1.086073e+002
2.538286e+003,1.079623e+002
2.539250e+003,1.088695e+002
2.540215e+003,1.091684e+002
2.541179e+003,1.086702e+002
2.542143e+003,1.083937e+002
2.543107e+003,1.088263e+002
2.544072e+003,1.101541e+002
2.545036e+003,1.124661e+002
2.546000e+003,1.130154e+002
2.546964e+003,1.112796e+002
2.547928e+003,1.099280e+002
2.548893e+003,1.094897e+002
2.549857e+003,1.094063e+002
2.550821e+003,1.095502e+002
2.551785e+003,1.095646e+002
2.552750e+003,1.091915e+002
2.553714e+003,1.080101e+002
2.554678e+003,1.053640e+002
2.555642e+003,1.031460e+002
2.556607e+003,1.032408e+002
2.557571e+003,1.037360e+002
2.558535e+003,1.038064e+002
2.559499e+003,1.029619e+002
2.560464e+003,1.003737e+002
2.561428e+003,9.793636e+001
2.562392e+003,9.731839e+001
2.563356e+003,9.754419e+001
2.564321e+003,9.765846e+001
2.565285e+003,9.735933e+001
2.566249e+003,9.461716e+001
2.567213e+003,8.924857e+001
2.568177e+003,8.875417e+001
2.569142e+003,9.348647e+001
2.570106e+003,9.508313e+001
2.571070e+003,9.366304e+001
2.572034e+003,9.093140e+001
2.572999e+003,8.772050e+001
2.573963e+003,8.660933e+001
2.574927e+003,8.764258e+001
2.575891e+003,8.888376e+001
2.576855e+003,8.931329e+001
2.577820e+003,8.837257e+001
2.578784e+003,8.611865e+001
2.579748e+003,8.398618e+001
2.580712e+003,8.219078e+001
2.581677e+003,8.130042e+001
2.582641e+003,8.129590e+001
2.583605e+003,8.146132e+001
2.584569e+003,8.211641e+001
2.585534e+003,8.266670e+001
2.586498e+003,8.285245e+001
2.587462e+003,8.273569e+001
2.588426e+003,8.227107e+001
2.589391e+003,8.115216e+001
2.590355e+003,7.894359e+001
2.591319e+003,7.620370e+001
2.592283e+003,7.449532e+001
2.593248e+003,7.351750e+001
2.594212e+003,7.217619e+001
2.595176e+003,7.085652e+001
2.596140e+003,7.059879e+001
2.597104e+003,7.107556e+001
2.598069e+003,7.176173e+001
2.599033e+003,7.220828e+001
2.599997e+003,7.153703e+001
2.600961e+003,6.999818e+001
2.601926e+003,6.933762e+001
2.602890e+003,6.999435e+001
2.603854e+003,7.017386e+001
2.604818e+003,6.933224e+001
2.605782e+003,6.825172e+001
2.606747e+003,6.712947e+001
2.607711e+003,6.655652e+001
2.608675e+003,6.671332e+001
2.609639e+003,6.610887e+001
2.610604e+003,6.427621e+001
2.611568e+003,6.270996e+001
2.612532e+003,6.223886e+001
2.613496e+003,6.277386e+001
2.614461e+003,6.439804e+001
2.615425e+003,6.555070e+001
2.616389e+003,6.431717e+001
2.617353e+003,6.274382e+001
2.618318e+003,6.280353e+001
2.619282e+003,6.317169e+001
2.620246e+003,6.327260e+001
2.621210e+003,6.346376e+001
2.622175e+003,6.339149e+001
2.623139e+003,6.270204e+001
2.624103e+003,6.088626e+001
2.625067e+003,5.857759e+001
2.626031e+003,5.822737e+001
2.626996e+003,6.005865e+001
2.627960e+003,6.078122e+001
2.628924e+003,6.025661e+001
2.629888e+003,6.177080e+001
2.630853e+003,6.404994e+001
2.631817e+003,6.229347e+001
2.632781e+003,5.877890e+001
2.633745e+003,5.889569e+001
2.634709e+003,6.137569e+001
2.635674e+003,6.139828e+001
2.636638e+003,5.848772e+001
2.637602e+003,5.663843e+001
2.638566e+003,5.790753e+001
2.639531e+003,5.879294e+001
2.640495e+003,5.683414e+001
2.641459e+003,5.609836e+001
2.642423e+003,5.772310e+001
2.643388e+003,5.842067e+001
2.644352e+003,5.727509e+001
2.645316e+003,5.564445e+001
2.646280e+003,5.400383e+001
2.647245e+003,5.344528e+001
2.648209e+003,5.503888e+001
2.649173e+003,5.683994e+001
2.650137e+003,5.646783e+001
2.651102e+003,5.539896e+001
2.652066e+003,5.437834e+001
2.653030e+003,5.293245e+001
2.653994e+003,5.210185e+001
2.654958e+003,5.124707e+001
2.655923e+003,4.895692e+001
2.656887e+003,4.738753e+001
2.657851e+003,4.803596e+001
2.658815e+003,4.916074e+001
2.659780e+003,4.941029e+001
2.660744e+003,4.958614e+001
2.661708e+003,5.118686e+001
2.662672e+003,5.349226e+001
2.663636e+003,5.378046e+001
2.664601e+003,5.245543e+001
2.665565e+003,5.021315e+001
2.666529e+003,4.785364e+001
2.667493e+003,4.694138e+001
2.668458e+003,4.726312e+001
2.669422e+003,4.815404e+001
2.670386e+003,4.890582e+001
2.671350e+003,4.959189e+001
2.672315e+003,5.054570e+001
2.673279e+003,5.010980e+001
2.674243e+003,4.737445e+001
2.675207e+003,4.533534e+001
2.676172e+003,4.427644e+001
2.677136e+003,4.311929e+001
2.678100e+003,4.205069e+001
2.679064e+003,4.247379e+001
2.680029e+003,4.377644e+001
2.680993e+003,4.231793e+001
2.681957e+003,3.826964e+001
2.682921e+003,3.614584e+001
2.683885e+003,3.717055e+001
2.684850e+003,3.854964e+001
2.685814e+003,3.985893e+001
2.686778e+003,4.075014e+001
2.687742e+003,3.989999e+001
2.688707e+003,3.949579e+001
2.689671e+003,3.983467e+001
2.690635e+003,3.951413e+001
2.691599e+003,3.867848e+001
2.692563e+003,3.767122e+001
2.693528e+003,3.663400e+001
2.694492e+003,3.565225e+001
2.695456e+003,3.468967e+001
2.696420e+003,3.410831e+001
2.697385e+003,3.441121e+001
2.698349e+003,3.488283e+001
2.699313e+003,3.485127e+001
2.700277e+003,3.476459e+001
2.701242e+003,3.461009e+001
2.702206e+003,3.395901e+001
2.703170e+003,3.219318e+001
2.704134e+003,3.078018e+001
2.705099e+003,3.196271e+001
2.706063e+003,3.368637e+001
2.707027e+003,3.332430e+001
2.707991e+003,3.209116e+001
2.708956e+003,3.234587e+001
2.709920e+003,3.317627e+001
2.710884e+003,3.322609e+001
2.711848e+003,3.257906e+001
2.712813e+003,2.986557e+001
2.713777e+003,2.676248e+001
2.714741e+003,2.543358e+001
2.715705e+003,2.481467e+001
2.716669e+003,2.473203e+001
2.717634e+003,2.518849e+001
2.718598e+003,2.553717e+001
2.719562e+003,2.612584e+001
2.720526e+003,2.666328e+001
2.721490e+003,2.590869e+001
2.722455e+003,2.521519e+001
2.723419e+003,2.535585e+001
2.724383e+003,2.502721e+001
2.725347e+003,2.432410e+001
2.726312e+003,2.369150e+001
2.727276e+003,2.281236e+001
2.728240e+003,2.248151e+001
2.729204e+003,2.317282e+001
2.730169e+003,2.339584e+001
2.731133e+003,2.201285e+001
2.732097e+003,1.978191e+001
2.733061e+003,1.645615e+001
2.734026e+003,1.570541e+001
2.734990e+003,2.141682e+001
2.735954e+003,2.369197e+001
2.736918e+003,2.040181e+001
2.737883e+003,1.842706e+001
2.738847e+003,1.871890e+001
2.739811e+003,1.952242e+001
2.740775e+003,2.027220e+001
2.741740e+003,1.999507e+001
2.742704e+003,1.870439e+001
2.743668e+003,1.764789e+001
2.744632e+003,1.663243e+001
2.745596e+003,1.685120e+001
2.746561e+003,1.964296e+001
2.747525e+003,2.084279e+001
2.748489e+003,2.020169e+001
2.749453e+003,1.874887e+001
2.750417e+003,1.657693e+001
2.751382e+003,1.511374e+001
2.752346e+003,1.460722e+001
2.753310e+003,1.462680e+001
2.754274e+003,1.489694e+001
2.755239e+003,1.540559e+001
2.756203e+003,1.654564e+001
2.757167e+003,1.736136e+001
2.758131e+003,1.642786e+001
2.759096e+003,1.533598e+001
2.760060e+003,1.545291e+001
2.761024e+003,1.567291e+001
2.761988e+003,1.493037e+001
2.762953e+003,1.454410e+001
2.763917e+003,1.530455e+001
2.764881e+003,1.657776e+001
2.765845e+003,1.787239e+001
2.766810e+003,1.839090e+001
2.767774e+003,1.705589e+001
2.768738e+003,1.516704e+001
2.769702e+003,1.412621e+001
2.770667e+003,1.379955e+001
2.771631e+003,1.312302e+001
2.772595e+003,1.248219e+001
2.773559e+003,1.426642e+001
2.774523e+003,1.651416e+001
2.775488e+003,1.711858e+001
2.776452e+003,1.700624e+001
2.777416e+003,1.541846e+001
2.778380e+003,1.235817e+001
2.779344e+003,1.262712e+001
2.780309e+003,1.587154e+001
2.781273e+003,1.632224e+001
2.782237e+003,1.610077e+001
2.783201e+003,1.732918e+001
2.784166e+003,1.756491e+001
2.785130e+003,1.605370e+001
2.786094e+003,1.427354e+001
2.787058e+003,1.371153e+001
2.788023e+003,1.427898e+001
2.788987e+003,1.461288e+001
2.789951e+003,1.435094e+001
2.790915e+003,1.387845e+001
2.791880e+003,1.336897e+001
2.792844e+003,1.289124e+001
2.793808e+003,1.274998e+001
2.794772e+003,1.294966e+001
2.795737e+003,1.281786e+001
2.796701e+003,1.309859e+001
2.797665e+003,1.383850e+001
2.798629e+003,1.415787e+001
2.799594e+003,1.433891e+001
2.800558e+003,1.472388e+001
2.801522e+003,1.492433e+001
2.802486e+003,1.415207e+001
2.803450e+003,1.187723e+001
2.804415e+003,1.211211e+001
2.805379e+003,1.433954e+001
2.806343e+003,1.351031e+001
2.807307e+003,1.186925e+001
2.808271e+003,1.239153e+001
2.809236e+003,1.316190e+001
2.810200e+003,1.260536e+001
2.811164e+003,1.164917e+001
2.812128e+003,1.161015e+001
2.813093e+003,1.265701e+001
2.814057e+003,1.274017e+001
2.815021e+003,9.990509e+000
2.815985e+003,9.610657e+000
2.816950e+003,1.282535e+001
2.817914e+003,1.346135e+001
2.818878e+003,1.136823e+001
2.819842e+003,1.002835e+001
2.820807e+003,1.036925e+001
2.821771e+003,1.245628e+001
2.822735e+003,1.495184e+001
2.823699e+003,1.545935e+001
2.824664e+003,1.418036e+001
2.825628e+003,1.202098e+001
2.826592e+003,8.736618e+000
2.827556e+003,7.945114e+000
2.828521e+003,8.968597e+000
2.829485e+003,9.084122e+000
2.830449e+003,8.714478e+000
2.831413e+003,8.414276e+000
2.832377e+003,7.990295e+000
2.833342e+003,7.623444e+000
2.834306e+003,7.675903e+000
2.835270e+003,8.433456e+000
2.836234e+003,9.841797e+000
2.837198e+003,1.054469e+001
2.838163e+003,1.025699e+001
2.839127e+003,1.069859e+001
2.840091e+003,1.195915e+001
2.841055e+003,1.211627e+001
2.842020e+003,1.094366e+001
2.842984e+003,1.044392e+001
2.843948e+003,1.078546e+001
2.844912e+003,1.009131e+001
2.845877e+003,8.273788e+000
2.846841e+003,7.300568e+000
2.847805e+003,7.716080e+000
2.848769e+003,8.030869e+000
2.849734e+003,7.974701e+000
2.850698e+003,7.362320e+000
2.851662e+003,6.045944e+000
2.852626e+003,6.505386e+000
2.853591e+003,8.726105e+000
2.854555e+003,7.887390e+000
2.855519e+003,4.085892e+000
2.856483e+003,3.009857e+000
2.857448e+003,5.397888e+000
2.858412e+003,6.219543e+000
2.859376e+003,4.263138e+000
2.860340e+003,2.934036e+000
2.861304e+003,2.004837e+000
2.862269e+003,2.998657e+000
2.863233e+003,5.719238e+000
2.864197e+003,7.026413e+000
2.865161e+003,7.242233e+000
2.866125e+003,6.249847e+000
2.867090e+003,4.299881e+000
2.868054e+003,4.070724e+000
2.869018e+003,5.845230e+000
2.869982e+003,6.736740e+000
2.870947e+003,6.602676e+000
2.871911e+003,6.483551e+000
2.872875e+003,5.500931e+000
2.873839e+003,4.340912e+000
2.874804e+003,3.195724e+000
2.875768e+003,2.820740e+000
2.876732e+003,3.199402e+000
2.877696e+003,3.105164e+000
2.878661e+003,2.654922e+000
2.879625e+003,3.612671e+000
2.880589e+003,6.068924e+000
2.881553e+003,7.703384e+000
2.882518e+003,8.009888e+000
2.883482e+003,8.141159e+000
2.884446e+003,8.248993e+000
2.885410e+003,6.566650e+000
2.886375e+003,3.275497e+000
2.887339e+003,3.357559e+000
2.888303e+003,6.464783e+000
2.889267e+003,8.998871e+000
2.890231e+003,1.015851e+001
2.891196e+003,9.957657e+000
2.892160e+003,8.747955e+000
2.893124e+003,8.833725e+000
2.894088e+003,1.071722e+001
2.895052e+003,1.189569e+001
2.896017e+003,1.236166e+001
2.896981e+003,1.197354e+001
2.897945e+003,1.093710e+001
2.898909e+003,1.045039e+001
2.899874e+003,1.062965e+001
2.900838e+003,1.143396e+001
2.901802e+003,1.268474e+001
2.902766e+003,1.410149e+001
2.903731e+003,1.553964e+001
2.904695e+003,1.640015e+001
2.905659e+003,1.668454e+001
2.906623e+003,1.631647e+001
2.907588e+003,1.543686e+001
2.908552e+003,1.674644e+001
2.909516e+003,1.966127e+001
2.910480e+003,2.270238e+001
2.911445e+003,2.488629e+001
2.912409e+003,2.372737e+001
2.913373e+003,2.066109e+001
2.914337e+003,2.034964e+001
2.915302e+003,2.276614e+001
2.916266e+003,2.524942e+001
2.917230e+003,2.764827e+001
2.918194e+003,2.744644e+001
2.919158e+003,2.571663e+001
2.920123e+003,2.800012e+001
2.921087e+003,3.211497e+001
2.922051e+003,3.293558e+001
2.923015e+003,3.167804e+001
2.923979e+003,3.113046e+001
2.924944e+003,3.134497e+001
2.925908e+003,3.156310e+001
2.926872e+003,3.178987e+001
2.927836e+003,3.206418e+001
2.928801e+003,3.245146e+001
2.929765e+003,3.326184e+001
2.930729e+003,3.436702e+001
2.931693e+003,3.574642e+001
2.932658e+003,3.702847e+001
2.933622e+003,3.760130e+001
2.934586e+003,3.784739e+001
2.935550e+003,3.825675e+001
2.936515e+003,3.889230e+001
2.937479e+003,3.994899e+001
2.938443e+003,4.091779e+001
2.939407e+003,4.022099e+001
2.940372e+003,3.918087e+001
2.941336e+003,4.080598e+001
2.942300e+003,4.357903e+001
2.943264e+003,4.660378e+001
2.944229e+003,4.870921e+001
2.945193e+003,4.821961e+001
2.946157e+003,4.693661e+001
2.947121e+003,4.618925e+001
2.948085e+003,4.603573e+001
2.949050e+003,4.661557e+001
2.950014e+003,4.742899e+001
2.950978e+003,4.777238e+001
2.951942e+003,4.783830e+001
2.952906e+003,4.740257e+001
2.953871e+003,4.735368e+001
2.954835e+003,4.875687e+001
2.955799e+003,5.014591e+001
2.956763e+003,5.062142e+001
2.957728e+003,5.148077e+001
2.958692e+003,5.364854e+001
2.959656e+003,5.482808e+001
2.960620e+003,5.270147e+001
2.961585e+003,5.094820e+001
2.962549e+003,5.398112e+001
2.963513e+003,5.713620e+001
2.964477e+003,5.756047e+001
2.965442e+003,5.835078e+001
2.966406e+003,6.109188e+001
2.967370e+003,6.177866e+001
2.968334e+003,5.901646e+001
2.969299e+003,5.659557e+001
2.970263e+003,5.642693e+001
2.971227e+003,5.774530e+001
2.972191e+003,6.032244e+001
2.973156e+003,6.267430e+001
2.974120e+003,6.461985e+001
2.975084e+003,6.508419e+001
2.976048e+003,6.352045e+001
2.977012e+003,6.218401e+001
2.977977e+003,6.144839e+001
2.978941e+003,6.342353e+001
2.979905e+003,6.780827e+001
2.980869e+003,6.947883e+001
2.981833e+003,6.707895e+001
2.982798e+003,6.512035e+001
2.983762e+003,6.502357e+001
2.984726e+003,6.563747e+001
2.985690e+003,6.727135e+001
2.986655e+003,6.706909e+001
2.987619e+003,6.517316e+001
2.988583e+003,6.470416e+001
2.989547e+003,6.570105e+001
2.990512e+003,6.711627e+001
2.991476e+003,6.840911e+001
2.992440e+003,6.867893e+001
2.993404e+003,6.797184e+001
2.994369e+003,6.766561e+001
2.995333e+003,6.784137e+001
2.996297e+003,7.011759e+001
2.997261e+003,7.385915e+001
2.998226e+003,7.508897e+001
2.999190e+003,7.453773e+001
3.000154e+003,7.384805e+001
3.001118e+003,7.319636e+001
3.002083e+003,7.184286e+001
3.003047e+003,7.101090e+001
3.004011e+003,7.339147e+001
3.004975e+003,7.713617e+001
3.005939e+003,7.775153e+001
3.006904e+003,7.649030e+001
3.007868e+003,7.665278e+001
3.008832e+003,7.732936e+001
3.009796e+003,7.684834e+001
3.010760e+003,7.654370e+001
3.011725e+003,7.839281e+001
3.012689e+003,8.039700e+001
3.013653e+003,8.083192e+001
3.014617e+003,8.093107e+001
3.015582e+003,8.190932e+001
3.016546e+003,8.344922e+001
3.017510e+003,8.579050e+001
3.018474e+003,8.719427e+001
3.019439e+003,8.435860e+001
3.020403e+003,8.247165e+001
3.021367e+003,8.637010e+001
3.022331e+003,8.821545e+001
3.023296e+003,8.514960e+001
3.024260e+003,8.242025e+001
3.025224e+003,8.257949e+001
3.026188e+003,8.501449e+001
3.027153e+003,8.961061e+001
3.028117e+003,9.193855e+001
3.029081e+003,8.631976e+001
3.030045e+003,8.463805e+001
3.031010e+003,9.062682e+001
3.031974e+003,9.450082e+001
3.032938e+003,9.513440e+001
3.033902e+003,9.408456e+001
3.034866e+003,9.223517e+001
3.035831e+003,9.146976e+001
3.036795e+003,9.249822e+001
3.037759e+003,9.649654e+001
3.038723e+003,1.042231e+002
3.039688e+003,1.060851e+002
3.040652e+003,1.006796e+002
3.041616e+003,9.906692e+001
3.042580e+003,1.007578e+002
3.043544e+003,1.033073e+002
3.044509e+003,1.055733e+002
3.045473e+003,1.048679e+002
3.046437e+003,1.025696e+002
3.047401e+003,1.025811e+002
3.048366e+003,1.044000e+002
3.049330e+003,1.056411e+002
3.050294e+003,1.064471e+002
3.051258e+003,1.074653e+002
3.052223e+003,1.083813e+002
3.053187e+003,1.081535e+002
3.054151e+003,1.076963e+002
3.055115e+003,1.077086e+002
3.056080e+003,1.087110e+002
3.057044e+003,1.119772e+002
3.058008e+003,1.146426e+002
3.058972e+003,1.140154e+002
3.059937e+003,1.127155e+002
3.060901e+003,1.139798e+002
3.061865e+003,1.159336e+002
3.062829e+003,1.165477e+002
3.063793e+003,1.170652e+002
3.064758e+003,1.183468e+002
3.065722e+003,1.195312e+002
3.066686e+003,1.205139e+002
3.067650e+003,1.203169e+002
3.068615e+003,1.186685e+002
3.069579e+003,1.178198e+002
3.070543e+003,1.188762e+002
3.071507e+003,1.196194e+002
3.072471e+003,1.185327e+002
3.073436e+003,1.184013e+002
3.074400e+003,1.196477e+002
3.075364e+003,1.218829e+002
3.076328e+003,1.249593e+002
3.077293e+003,1.260687e+002
3.078257e+003,1.256114e+002
3.079221e+003,1.273917e+002
3.080185e+003,1.310190e+002
3.081150e+003,1.314017e+002
3.082114e+003,1.282376e+002
3.083078e+003,1.276694e+002
3.084042e+003,1.294446e+002
3.085007e+003,1.300372e+002
3.085971e+003,1.295365e+002
3.086935e+003,1.270082e+002
3.087899e+003,1.245917e+002
3.088864e+003,1.263353e+002
3.089828e+003,1.297940e+002
3.090792e+003,1.316431e+002
3.091756e+003,1.318260e+002
3.092720e+003,1.299222e+002
3.093685e+003,1.280122e+002
3.094649e+003,1.306123e+002
3.095613e+003,1.338315e+002
3.096577e+003,1.325195e+002
3.097542e+003,1.312116e+002
3.098506e+003,1.334848e+002
3.099470e+003,1.355195e+002
3.100434e+003,1.360676e+002
3.101398e+003,1.354337e+002
3.102363e+003,1.338739e+002
3.103327e+003,1.332691e+002
3.104291e+003,1.348808e+002
3.105255e+003,1.369801e+002
3.106220e+003,1.400341e+002
3.107184e+003,1.405118e+002
3.108148e+003,1.377949e+002
3.109112e+003,1.361770e+002
3.110077e+003,1.360539e+002
3.111041e+003,1.361597e+002
3.112005e+003,1.363020e+002
3.112969e+003,1.369027e+002
3.113934e+003,1.380391e+002
3.114898e+003,1.395649e+002
3.115862e+003,1.414038e+002
3.116826e+003,1.431577e+002
3.117791e+003,1.447974e+002
3.118755e+003,1.466041e+002
3.119719e+003,1.478621e+002
3.120683e+003,1.463997e+002
3.121647e+003,1.443396e+002
3.122612e+003,1.445908e+002
3.123576e+003,1.465008e+002
3.124540e+003,1.496882e+002
3.125504e+003,1.529043e+002
3.126469e+003,1.545279e+002
3.127433e+003,1.546203e+002
3.128397e+003,1.518734e+002
3.129361e+003,1.496460e+002
3.130325e+003,1.501479e+002
3.131290e+003,1.517403e+002
3.132254e+003,1.541343e+002
3.133218e+003,1.562128e+002
3.134182e+003,1.575031e+002
3.135147e+003,1.578617e+002
3.136111e+003,1.572218e+002
3.137075e+003,1.565642e+002
3.138039e+003,1.558048e+002
3.139004e+003,1.569357e+002
3.139968e+003,1.603026e+002
3.140932e+003,1.614612e+002
3.141896e+003,1.607790e+002
3.142861e+003,1.612692e+002
3.143825e+003,1.632073e+002
3.144789e+003,1.672511e+002
3.145753e+003,1.714219e+002
3.146718e+003,1.693239e+002
3.147682e+003,1.635348e+002
3.148646e+003,1.637990e+002
3.149610e+003,1.673912e+002
3.150574e+003,1.665428e+002
3.151539e+003,1.645678e+002
3.152503e+003,1.651541e+002
3.153467e+003,1.673370e+002
3.154431e+003,1.710879e+002
3.155396e+003,1.733614e+002
3.156360e+003,1.720200e+002
3.157324e+003,1.699969e+002
3.158288e+003,1.697824e+002
3.159252e+003,1.699796e+002
3.160217e+003,1.687614e+002
3.161181e+003,1.693970e+002
3.162145e+003,1.735045e+002
3.163109e+003,1.757017e+002
3.164074e+003,1.753951e+002
3.165038e+003,1.763267e+002
3.166002e+003,1.789984e+002
3.166966e+003,1.819680e+002
3.167931e+003,1.843706e+002
3.168895e+003,1.816219e+002
3.169859e+003,1.739529e+002
3.170823e+003,1.737775e+002
3.171788e+003,1.794603e+002
3.172752e+003,1.822625e+002
3.173716e+003,1.828606e+002
3.174680e+003,1.822107e+002
3.175645e+003,1.813915e+002
3.176609e+003,1.815326e+002
3.177573e+003,1.825222e+002
3.178537e+003,1.844948e+002
3.179501e+003,1.859812e+002
3.180466e+003,1.845264e+002
3.181430e+003,1.828684e+002
3.182394e+003,1.836131e+002
3.183358e+003,1.853213e+002
3.184323e+003,1.882145e+002
3.185287e+003,1.896611e+002
3.186251e+003,1.890461e+002
3.187215e+003,1.883425e+002
3.188179e+003,1.881185e+002
3.189144e+003,1.867986e+002
3.190108e+003,1.837775e+002
3.191072e+003,1.828218e+002
3.192036e+003,1.849254e+002
3.193001e+003,1.850217e+002
3.193965e+003,1.836468e+002
3.194929e+003,1.852080e+002
3.195893e+003,1.884215e+002
3.196858e+003,1.899144e+002
3.197822e+003,1.903253e+002
3.198786e+003,1.914135e+002
3.199750e+003,1.931368e+002
3.200715e+003,1.956900e+002
3.201679e+003,1.975083e+002
3.202643e+003,1.943499e+002
3.203607e+003,1.908374e+002
3.204572e+003,1.922287e+002
3.205536e+003,1.939560e+002
3.206500e+003,1.937508e+002
3.207464e+003,1.937339e+002
3.208428e+003,1.945918e+002
3.209393e+003,1.959778e+002
3.210357e+003,1.976524e+002
3.211321e+003,1.987178e+002
3.212285e+003,1.986774e+002
3.213250e+003,1.987448e+002
3.214214e+003,1.990612e+002
3.215178e+003,1.991557e+002
3.216142e+003,1.991790e+002
3.217106e+003,2.003279e+002
3.218071e+003,2.018583e+002
3.219035e+003,2.015946e+002
3.219999e+003,2.005330e+002
3.220963e+003,2.010674e+002
3.221928e+003,2.025876e+002
3.222892e+003,2.042750e+002
3.223856e+003,2.053335e+002
3.224820e+003,2.032116e+002
3.225785e+003,2.015059e+002
3.226749e+003,2.043560e+002
3.227713e+003,2.064703e+002
3.228677e+003,2.058715e+002
3.229642e+003,2.044300e+002
3.230606e+003,2.030703e+002
3.231570e+003,2.037629e+002
3.232534e+003,2.074360e+002
3.233499e+003,2.094847e+002
3.234463e+003,2.073223e+002
3.235427e+003,2.082316e+002
3.236391e+003,2.119602e+002
3.237355e+003,2.105890e+002
3.238320e+003,2.065092e+002
3.239284e+003,2.083228e+002
3.240248e+003,2.134853e+002
3.241212e+003,2.148944e+002
3.242177e+003,2.142409e+002
3.243141e+003,2.144580e+002
3.244105e+003,2.151992e+002
3.245069e+003,2.163086e+002
3.246033e+003,2.168849e+002
3.246998e+003,2.146489e+002
3.247962e+003,2.138318e+002
3.248926e+003,2.167394e+002
3.249890e+003,2.199254e+002
3.250855e+003,2.222854e+002
3.251819e+003,2.227446e+002
3.252783e+003,2.211208e+002
3.253747e+003,2.199414e+002
3.254712e+003,2.201857e+002
3.255676e+003,2.205627e+002
3.256640e+003,2.209776e+002
3.257604e+003,2.222552e+002
3.258569e+003,2.241615e+002
3.259533e+003,2.262299e+002
3.260497e+003,2.280876e+002
3.261461e+003,2.291922e+002
3.262426e+003,2.298040e+002
3.263390e+003,2.303682e+002
3.264354e+003,2.303970e+002
3.265318e+003,2.286230e+002
3.266282e+003,2.276138e+002
3.267247e+003,2.310693e+002
3.268211e+003,2.347078e+002
3.269175e+003,2.372176e+002
3.270139e+003,2.379070e+002
3.271104e+003,2.367108e+002
3.272068e+003,2.360794e+002
3.273032e+003,2.366853e+002
3.273996e+003,2.379221e+002
3.274960e+003,2.395038e+002
3.275925e+003,2.395356e+002
3.276889e+003,2.380606e+002
3.277853e+003,2.387625e+002
3.278817e+003,2.408848e+002
3.279782e+003,2.431016e+002
3.280746e+003,2.445247e+002
3.281710e+003,2.433175e+002
3.282674e+003,2.415886e+002
3.283639e+003,2.409939e+002
3.284603e+003,2.416469e+002
3.285567e+003,2.437714e+002
3.286531e+003,2.464102e+002
3.287496e+003,2.493391e+002
3.288460e+003,2.514648e+002
3.289424e+003,2.528197e+002
3.290388e+003,2.520152e+002
3.291353e+003,2.491848e+002
3.292317e+003,2.473020e+002
3.293281e+003,2.468051e+002
3.294245e+003,2.465751e+002
3.295209e+003,2.468409e+002
3.296174e+003,2.494374e+002
3.297138e+003,2.535903e+002
3.298102e+003,2.564088e+002
3.299066e+003,2.580110e+002
3.300031e+003,2.581314e+002
3.300995e+003,2.577257e+002
3.301959e+003,2.571282e+002
3.302923e+003,2.574887e+002
3.303887e+003,2.594654e+002
3.304852e+003,2.602790e+002
3.305816e+003,2.583227e+002
3.306780e+003,2.563842e+002
3.307744e+003,2.557395e+002
3.308709e+003,2.563885e+002
3.309673e+003,2.584390e+002
3.310637e+003,2.596959e+002
3.311601e+003,2.603136e+002
3.312566e+003,2.615294e+002
3.313530e+003,2.630386e+002
3.314494e+003,2.638320e+002
3.315458e+003,2.640982e+002
3.316423e+003,2.642025e+002
3.317387e+003,2.645087e+002
3.318351e+003,2.657805e+002
3.319315e+003,2.674076e+002
3.320280e+003,2.694122e+002
3.321244e+003,2.702538e+002
3.322208e+003,2.688871e+002
3.323172e+003,2.690453e+002
3.324136e+003,2.714998e+002
3.325101e+003,2.741758e+002
3.326065e+003,2.761534e+002
3.327029e+003,2.760247e+002
3.327993e+003,2.735128e+002
3.328958e+003,2.732874e+002
3.329922e+003,2.751405e+002
3.330886e+003,2.786043e+002
3.331850e+003,2.819688e+002
3.332814e+003,2.817675e+002
3.333779e+003,2.803107e+002
3.334743e+003,2.797476e+002
3.335707e+003,2.801412e+002
3.336671e+003,2.815821e+002
3.337636e+003,2.826654e+002
3.338600e+003,2.821061e+002
3.339564e+003,2.813952e+002
3.340528e+003,2.799485e+002
3.341493e+003,2.826379e+002
3.342457e+003,2.892929e+002
3.343421e+003,2.908189e+002
3.344385e+003,2.883828e+002
3.345350e+003,2.892932e+002
3.346314e+003,2.931790e+002
3.347278e+003,2.960576e+002
3.348242e+003,2.973495e+002
3.349207e+003,2.950867e+002
3.350171e+003,2.923817e+002
3.351135e+003,2.956920e+002
3.352099e+003,2.984778e+002
3.353063e+003,2.944731e+002
3.354028e+003,2.931892e+002
3.354992e+003,2.970292e+002
3.355956e+003,3.004958e+002
3.356920e+003,3.015897e+002
3.357885e+003,3.012538e+002
3.358849e+003,2.997408e+002
3.359813e+003,3.002972e+002
3.360777e+003,3.029016e+002
3.361741e+003,3.063986e+002
3.362706e+003,3.096640e+002
3.363670e+003,3.104646e+002
3.364634e+003,3.093129e+002
3.365598e+003,3.052948e+002
3.366563e+003,3.039539e+002
3.367527e+003,3.094444e+002
3.368491e+003,3.134880e+002
3.369455e+003,3.083253e+002
3.370420e+003,3.039936e+002
3.371384e+003,3.063985e+002
3.372348e+003,3.088322e+002
3.373312e+003,3.109810e+002
3.374277e+003,3.108759e+002
3.375241e+003,3.093880e+002
3.376205e+003,3.096366e+002
3.377169e+003,3.113286e+002
3.378134e+003,3.126746e+002
3.379098e+003,3.134919e+002
3.380062e+003,3.133330e+002
3.381026e+003,3.129802e+002
3.381990e+003,3.131840e+002
3.382955e+003,3.142405e+002
3.383919e+003,3.170176e+002
3.384883e+003,3.186936e+002
3.385847e+003,3.186576e+002
3.386812e+003,3.168236e+002
3.387776e+003,3.138355e+002
3.388740e+003,3.135144e+002
3.389704e+003,3.164833e+002
3.390668e+003,3.168525e+002
3.391633e+003,3.152148e+002
3.392597e+003,3.144534e+002
3.393561e+003,3.150785e+002
3.394525e+003,3.195330e+002
3.395490e+003,3.233425e+002
3.396454e+003,3.231331e+002
3.397418e+003,3.226452e+002
3.398382e+003,3.239604e+002
3.399347e+003,3.247171e+002
3.400311e+003,3.231602e+002
3.401275e+003,3.233367e+002
3.402239e+003,3.266089e+002
3.403204e+003,3.275211e+002
3.404168e+003,3.266077e+002
3.405132e+003,3.269364e+002
3.406096e+003,3.277764e+002
3.407061e+003,3.260897e+002
3.408025e+003,3.251241e+002
3.408989e+003,3.291427e+002
3.409953e+003,3.332859e+002
3.410917e+003,3.307578e+002
3.411882e+003,3.284682e+002
3.412846e+003,3.338390e+002
3.413810e+003,3.349518e+002
3.414774e+003,3.299435e+002
3.415739e+003,3.282298e+002
3.416703e+003,3.302763e+002
3.417667e+003,3.309094e+002
3.418631e+003,3.301662e+002
3.419595e+003,3.321245e+002
3.420560e+003,3.355164e+002
3.421524e+003,3.367726e+002
3.422488e+003,3.368589e+002
3.423452e+003,3.379808e+002
3.424417e+003,3.375489e+002
3.425381e+003,3.328789e+002
3.426345e+003,3.294921e+002
3.427309e+003,3.288742e+002
3.428274e+003,3.300587e+002
3.429238e+003,3.325782e+002
3.430202e+003,3.363775e+002
3.431166e+003,3.411963e+002
3.432131e+003,3.409025e+002
3.433095e+003,3.373210e+002
3.434059e+003,3.389607e+002
3.435023e+003,3.423412e+002
3.435988e+003,3.429870e+002
3.436952e+003,3.421127e+002
3.437916e+003,3.403244e+002
3.438880e+003,3.410721e+002
3.439844e+003,3.463352e+002
3.440809e+003,3.495135e+002
3.441773e+003,3.459531e+002
3.442737e+003,3.446821e+002
3.443701e+003,3.462391e+002
3.444666e+003,3.479817e+002
3.445630e+003,3.492653e+002
3.446594e+003,3.475285e+002
3.447558e+003,3.459455e+002
3.448522e+003,3.498773e+002
3.449487e+003,3.539281e+002
3.450451e+003,3.527176e+002
3.451415e+003,3.502048e+002
3.452379e+003,3.492227e+002
3.453344e+003,3.503236e+002
3.454308e+003,3.541819e+002
3.455272e+003,3.569776e+002
3.456236e+003,3.585814e+002
3.457201e+003,3.605094e+002
3.458165e+003,3.624596e+002
3.459129e+003,3.622078e+002
3.460093e+003,3.616119e+002
3.461058e+003,3.643715e+002
3.462022e+003,3.675790e+002
3.462986e+003,3.650429e+002
3.463950e+003,3.629412e+002
3.464915e+003,3.664079e+002
3.465879e+003,3.698286e+002
3.466843e+003,3.722657e+002
3.467807e+003,3.708664e+002
3.468771e+003,3.664690e+002
3.469736e+003,3.652030e+002
3.470700e+003,3.678423e+002
3.471664e+003,3.710084e+002
3.472628e+003,3.744548e+002
3.473593e+003,3.781768e+002
3.474557e+003,3.808094e+002
3.475521e+003,3.797895e+002
3.476485e+003,3.788511e+002
3.477449e+003,3.794273e+002
3.478414e+003,3.798890e+002
3.479378e+003,3.798004e+002
3.480342e+003,3.805810e+002
3.481306e+003,3.827867e+002
3.482271e+003,3.865336e+002
3.483235e+003,3.911671e+002
3.484199e+003,3.888303e+002
3.485163e+003,3.845820e+002
3.486128e+003,3.881352e+002
3.487092e+003,3.919129e+002
3.488056e+003,3.899036e+002
3.489020e+003,3.885417e+002
3.489985e+003,3.911494e+002
3.490949e+003,3.946790e+002
3.491913e+003,3.978530e+002
3.492877e+003,3.991681e+002
3.493842e+003,3.985646e+002
3.494806e+003,3.990393e+002
3.495770e+003,4.004920e+002
3.496734e+003,4.036011e+002
3.497698e+003,4.060067e+002
3.498663e+003,4.048236e+002
3.499627e+003,4.030861e+002
3.500591e+003,0.000000e+000
