9.974011e+001,2.668106e+002
1.007043e+002,2.704790e+002
1.016686e+002,2.740938e+002
1.026328e+002,2.771780e+002
1.035970e+002,2.791236e+002
1.045613e+002,2.808249e+002
1.055255e+002,2.817729e+002
1.064897e+002,2.807867e+002
1.074540e+002,2.756841e+002
1.084182e+002,2.703730e+002
1.093824e+002,2.639572e+002
1.103467e+002,2.568242e+002
1.113109e+002,2.511042e+002
1.122751e+002,2.516787e+002
1.132394e+002,2.541186e+002
1.142036e+002,2.563886e+002
1.151678e+002,2.571488e+002
1.161321e+002,2.563519e+002
1.170963e+002,2.546517e+002
1.180605e+002,2.521872e+002
1.190248e+002,2.494747e+002
1.199890e+002,2.471636e+002
1.209532e+002,2.461598e+002
1.219175e+002,2.451868e+002
1.228817e+002,2.441746e+002
1.238459e+002,2.430863e+002
1.248102e+002,2.418838e+002
1.257744e+002,2.398768e+002
1.267386e+002,2.382447e+002
1.277029e+002,2.371086e+002
1.286671e+002,2.361819e+002
1.296313e+002,2.346824e+002
1.305956e+002,2.319853e+002
1.315598e+002,2.290226e+002
1.325240e+002,2.259034e+002
1.334883e+002,2.229035e+002
1.344525e+002,2.207324e+002
1.354167e+002,2.206958e+002
1.363810e+002,2.218427e+002
1.373452e+002,2.234232e+002
1.383094e+002,2.248346e+002
1.392737e+002,2.261767e+002
1.402379e+002,2.264164e+002
1.412021e+002,2.253820e+002
1.421664e+002,2.233642e+002
1.431306e+002,2.207547e+002
1.440948e+002,2.164484e+002
1.450591e+002,2.137083e+002
1.460233e+002,2.132732e+002
1.469875e+002,2.143784e+002
1.479518e+002,2.151833e+002
1.489160e+002,2.135861e+002
1.498802e+002,2.115755e+002
1.508445e+002,2.101299e+002
1.518087e+002,2.097324e+002
1.527729e+002,2.104048e+002
1.537372e+002,2.121351e+002
1.547014e+002,2.134804e+002
1.556656e+002,2.129248e+002
1.566299e+002,2.096024e+002
1.575941e+002,2.035164e+002
1.585583e+002,1.992912e+002
1.595226e+002,1.970564e+002
1.604868e+002,1.960042e+002
1.614510e+002,1.953888e+002
1.624153e+002,1.951649e+002
1.633795e+002,1.940490e+002
1.643438e+002,1.916217e+002
1.653080e+002,1.890160e+002
1.662722e+002,1.877828e+002
1.672365e+002,1.900047e+002
1.682007e+002,1.922057e+002
1.691649e+002,1.928452e+002
1.701292e+002,1.921953e+002
1.710934e+002,1.913282e+002
1.720576e+002,1.923283e+002
1.730219e+002,1.940167e+002
1.739861e+002,1.948053e+002
1.749503e+002,1.939240e+002
1.759146e+002,1.911238e+002
1.768788e+002,1.883991e+002
1.778430e+002,1.871435e+002
1.788073e+002,1.861293e+002
1.797715e+002,1.845320e+002
1.807357e+002,1.817556e+002
1.817000e+002,1.805909e+002
1.826642e+002,1.809488e+002
1.836284e+002,1.814993e+002
1.845927e+002,1.812461e+002
1.855569e+002,1.795099e+002
1.865211e+002,1.770490e+002
1.874854e+002,1.749474e+002
1.884496e+002,1.734874e+002
1.894138e+002,1.728520e+002
1.903781e+002,1.731970e+002
1.913423e+002,1.744087e+002
1.923065e+002,1.757997e+002
1.932708e+002,1.769636e+002
1.942350e+002,1.773850e+002
1.951992e+002,1.760058e+002
1.961635e+002,1.720204e+002
1.971277e+002,1.690940e+002
1.980919e+002,1.681413e+002
1.990562e+002,1.691606e+002
2.000204e+002,1.703535e+002
2.009846e+002,1.712480e+002
2.019489e+002,1.721797e+002
2.029131e+002,1.737044e+002
2.038773e+002,1.760114e+002
2.048416e+002,1.776238e+002
2.058058e+002,1.763429e+002
2.067700e+002,1.742050e+002
2.077343e+002,1.727811e+002
2.086985e+002,1.732016e+002
2.096627e+002,1.746500e+002
2.106270e+002,1.736862e+002
2.115912e+002,1.708379e+002
2.125554e+002,1.680144e+002
2.135197e+002,1.674379e+002
2.144839e+002,1.706298e+002
2.154481e+002,1.716336e+002
2.164124e+002,1.696081e+002
2.173766e+002,1.662878e+002
2.183408e+002,1.643295e+002
2.193051e+002,1.653392e+002
2.202693e+002,1.660391e+002
2.212335e+002,1.654169e+002
2.221978e+002,1.637906e+002
2.231620e+002,1.620634e+002
2.241262e+002,1.614498e+002
2.250904e+002,1.617407e+002
2.260547e+002,1.625193e+002
2.270189e+002,1.634409e+002
2.279831e+002,1.641565e+002
2.289474e+002,1.644066e+002
2.299116e+002,1.645515e+002
2.308758e+002,1.643468e+002
2.318401e+002,1.636643e+002
2.328043e+002,1.625559e+002
2.337685e+002,1.624839e+002
2.347328e+002,1.630357e+002
2.356970e+002,1.633050e+002
2.366612e+002,1.630354e+002
2.376255e+002,1.623362e+002
2.385897e+002,1.620251e+002
2.395539e+002,1.628672e+002
2.405182e+002,1.638395e+002
2.414824e+002,1.641469e+002
2.424466e+002,1.632227e+002
2.434109e+002,1.622119e+002
2.443751e+002,1.626347e+002
2.453393e+002,1.636639e+002
2.463036e+002,1.643008e+002
2.472678e+002,1.635313e+002
2.482320e+002,1.615658e+002
2.491963e+002,1.610786e+002
2.501605e+002,1.619454e+002
2.511247e+002,1.637140e+002
2.520890e+002,1.659131e+002
2.530532e+002,1.705442e+002
2.540174e+002,1.722637e+002
2.549817e+002,1.691557e+002
2.559459e+002,1.637982e+002
2.569102e+002,1.606346e+002
2.578744e+002,1.625370e+002
2.588386e+002,1.648194e+002
2.598029e+002,1.668854e+002
2.607671e+002,1.686521e+002
2.617313e+002,1.701788e+002
2.626956e+002,1.711566e+002
2.636598e+002,1.720130e+002
2.646240e+002,1.728678e+002
2.655883e+002,1.735493e+002
2.665525e+002,1.738819e+002
2.675167e+002,1.741723e+002
2.684810e+002,1.749761e+002
2.694452e+002,1.756741e+002
2.704094e+002,1.759837e+002
2.713737e+002,1.758717e+002
2.723379e+002,1.759892e+002
2.733021e+002,1.761576e+002
2.742664e+002,1.760711e+002
2.752306e+002,1.753898e+002
2.761948e+002,1.741627e+002
2.771591e+002,1.738916e+002
2.781233e+002,1.772504e+002
2.790875e+002,1.814207e+002
2.800518e+002,1.845885e+002
2.810160e+002,1.856369e+002
2.819802e+002,1.848058e+002
2.829445e+002,1.827239e+002
2.839087e+002,1.799080e+002
2.848729e+002,1.777620e+002
2.858372e+002,1.774629e+002
2.868014e+002,1.796273e+002
2.877656e+002,1.810338e+002
2.887299e+002,1.807827e+002
2.896941e+002,1.799547e+002
2.906583e+002,1.794850e+002
2.916226e+002,1.798353e+002
2.925868e+002,1.808400e+002
2.935510e+002,1.830449e+002
2.945153e+002,1.853709e+002
2.954795e+002,1.866564e+002
2.964437e+002,1.857741e+002
2.974080e+002,1.838777e+002
2.983722e+002,1.828691e+002
2.993364e+002,1.826145e+002
3.003007e+002,1.826959e+002
3.012649e+002,1.824657e+002
3.022291e+002,1.818302e+002
3.031934e+002,1.822180e+002
3.041576e+002,1.840105e+002
3.051218e+002,1.863772e+002
3.060861e+002,1.877341e+002
3.070503e+002,1.859651e+002
3.080145e+002,1.849925e+002
3.089788e+002,1.863358e+002
3.099430e+002,1.888568e+002
3.109072e+002,1.904673e+002
3.118715e+002,1.894550e+002
3.128357e+002,1.887983e+002
3.137999e+002,1.887014e+002
3.147642e+002,1.889692e+002
3.157284e+002,1.895405e+002
3.166926e+002,1.912904e+002
3.176569e+002,1.938258e+002
3.186211e+002,1.955608e+002
3.195853e+002,1.962966e+002
3.205496e+002,1.963368e+002
3.215138e+002,1.965858e+002
3.224780e+002,1.970375e+002
3.234423e+002,1.968373e+002
3.244065e+002,1.953618e+002
3.253707e+002,1.931473e+002
3.263350e+002,1.921472e+002
3.272992e+002,1.942726e+002
3.282634e+002,1.967003e+002
3.292277e+002,1.995259e+002
3.301919e+002,2.022897e+002
3.311561e+002,2.040188e+002
3.321204e+002,2.022521e+002
3.330846e+002,2.000278e+002
3.340488e+002,1.994784e+002
3.350131e+002,2.005976e+002
3.359773e+002,2.020646e+002
3.369415e+002,2.005631e+002
3.379058e+002,1.972104e+002
3.388700e+002,1.958016e+002
3.398342e+002,1.975201e+002
3.407985e+002,2.018693e+002
3.417627e+002,2.053655e+002
3.427269e+002,2.069650e+002
3.436912e+002,2.078361e+002
3.446554e+002,2.081457e+002
3.456196e+002,2.081388e+002
3.465839e+002,2.083591e+002
3.475481e+002,2.092380e+002
3.485123e+002,2.103917e+002
3.494765e+002,2.114318e+002
3.504408e+002,2.121219e+002
3.514050e+002,2.124233e+002
3.523692e+002,2.126966e+002
3.533335e+002,2.130907e+002
3.542977e+002,2.136067e+002
3.552619e+002,2.143323e+002
3.562262e+002,2.153829e+002
3.571904e+002,2.167733e+002
3.581546e+002,2.183092e+002
3.591189e+002,2.192395e+002
3.600831e+002,2.187858e+002
3.610473e+002,2.169412e+002
3.620116e+002,2.159511e+002
3.629758e+002,2.174399e+002
3.639400e+002,2.189335e+002
3.649043e+002,2.200280e+002
3.658685e+002,2.205370e+002
3.668327e+002,2.203223e+002
3.677970e+002,2.178768e+002
3.687612e+002,2.158267e+002
3.697254e+002,2.156190e+002
3.706897e+002,2.174648e+002
3.716539e+002,2.204842e+002
3.726181e+002,2.228419e+002
3.735824e+002,2.242811e+002
3.745466e+002,2.248911e+002
3.755108e+002,2.247680e+002
3.764751e+002,2.242310e+002
3.774393e+002,2.244238e+002
3.784035e+002,2.264564e+002
3.793678e+002,2.273968e+002
3.803320e+002,2.262113e+002
3.812962e+002,2.233377e+002
3.822605e+002,2.211603e+002
3.832247e+002,2.201766e+002
3.841889e+002,2.203792e+002
3.851532e+002,2.227041e+002
3.861174e+002,2.265698e+002
3.870816e+002,2.300932e+002
3.880459e+002,2.300156e+002
3.890101e+002,2.283853e+002
3.899743e+002,2.276757e+002
3.909386e+002,2.284689e+002
3.919028e+002,2.301320e+002
3.928670e+002,2.300981e+002
3.938313e+002,2.269500e+002
3.947955e+002,2.248887e+002
3.957597e+002,2.253985e+002
3.967240e+002,2.280321e+002
3.976882e+002,2.300330e+002
3.986524e+002,2.314494e+002
3.996167e+002,2.322566e+002
4.005809e+002,2.312239e+002
4.015451e+002,2.289158e+002
4.025094e+002,2.271961e+002
4.034736e+002,2.286525e+002
4.044378e+002,2.313792e+002
4.054021e+002,2.338204e+002
4.063663e+002,2.357103e+002
4.073305e+002,2.373534e+002
4.082948e+002,2.396216e+002
4.092590e+002,2.421898e+002
4.102232e+002,2.424977e+002
4.111875e+002,2.396967e+002
4.121517e+002,2.352396e+002
4.131159e+002,2.327972e+002
4.140802e+002,2.357459e+002
4.150444e+002,2.382592e+002
4.160086e+002,2.389182e+002
4.169729e+002,2.389848e+002
4.179371e+002,2.407992e+002
4.189013e+002,2.465304e+002
4.198656e+002,2.500733e+002
4.208298e+002,2.489087e+002
4.217940e+002,2.449429e+002
4.227583e+002,2.407547e+002
4.237225e+002,2.386409e+002
4.246867e+002,2.391035e+002
4.256510e+002,2.409213e+002
4.266152e+002,2.435574e+002
4.275794e+002,2.459924e+002
4.285437e+002,2.471273e+002
4.295079e+002,2.464642e+002
4.304721e+002,2.464113e+002
4.314364e+002,2.482693e+002
4.324006e+002,2.504813e+002
4.333648e+002,2.509440e+002
4.343291e+002,2.477657e+002
4.352933e+002,2.458149e+002
4.362575e+002,2.469061e+002
4.372218e+002,2.492757e+002
4.381860e+002,2.519198e+002
4.391502e+002,2.544368e+002
4.401145e+002,2.559985e+002
4.410787e+002,2.552048e+002
4.420429e+002,2.536318e+002
4.430072e+002,2.529386e+002
4.439714e+002,2.540551e+002
4.449356e+002,2.564132e+002
4.458999e+002,2.571861e+002
4.468641e+002,2.566216e+002
4.478283e+002,2.558235e+002
4.487926e+002,2.557620e+002
4.497568e+002,2.569172e+002
4.507210e+002,2.576902e+002
4.516853e+002,2.560484e+002
4.526495e+002,2.541958e+002
4.536137e+002,2.531985e+002
4.545780e+002,2.533479e+002
4.555422e+002,2.539374e+002
4.565064e+002,2.554496e+002
4.574707e+002,2.570580e+002
4.584349e+002,2.574338e+002
4.593991e+002,2.563762e+002
4.603634e+002,2.547905e+002
4.613276e+002,2.554603e+002
4.622918e+002,2.582894e+002
4.632561e+002,2.608986e+002
4.642203e+002,2.630752e+002
4.651845e+002,2.645693e+002
4.661488e+002,2.643714e+002
4.671130e+002,2.588190e+002
4.680772e+002,2.549426e+002
4.690415e+002,2.543528e+002
4.700057e+002,2.559156e+002
4.709699e+002,2.571551e+002
4.719342e+002,2.565046e+002
4.728984e+002,2.557939e+002
4.738626e+002,2.558874e+002
4.748269e+002,2.564140e+002
4.757911e+002,2.569677e+002
4.767553e+002,2.573676e+002
4.777196e+002,2.576584e+002
4.786838e+002,2.571779e+002
4.796480e+002,2.556209e+002
4.806123e+002,2.533088e+002
4.815765e+002,2.507785e+002
4.825407e+002,2.483892e+002
4.835050e+002,2.469275e+002
4.844692e+002,2.469298e+002
4.854334e+002,2.472404e+002
4.863977e+002,2.462809e+002
4.873619e+002,2.428728e+002
4.883261e+002,2.407475e+002
4.892904e+002,2.445494e+002
4.902546e+002,2.492072e+002
4.912188e+002,2.510162e+002
4.921831e+002,2.487437e+002
4.931473e+002,2.450173e+002
4.941115e+002,2.447540e+002
4.950758e+002,2.461378e+002
4.960400e+002,2.477527e+002
4.970042e+002,2.491597e+002
4.979685e+002,2.502483e+002
4.989327e+002,2.497489e+002
4.998969e+002,2.453444e+002
5.008612e+002,2.428185e+002
5.018254e+002,2.449739e+002
5.027896e+002,2.497986e+002
5.037539e+002,2.508941e+002
5.047181e+002,2.438091e+002
5.056823e+002,2.385352e+002
5.066466e+002,2.378005e+002
5.076108e+002,2.399301e+002
5.085750e+002,2.419270e+002
5.095393e+002,2.411620e+002
5.105035e+002,2.396064e+002
5.114677e+002,2.407868e+002
5.124320e+002,2.440796e+002
5.133962e+002,2.476570e+002
5.143605e+002,2.495320e+002
5.153247e+002,2.492961e+002
5.162889e+002,2.507427e+002
5.172532e+002,2.547072e+002
5.182174e+002,2.592355e+002
5.191816e+002,2.629819e+002
5.201459e+002,2.657072e+002
5.211101e+002,2.676836e+002
5.220743e+002,2.679265e+002
5.230386e+002,2.679893e+002
5.240028e+002,2.687945e+002
5.249670e+002,2.709794e+002
5.259313e+002,2.748897e+002
5.268955e+002,2.814091e+002
5.278597e+002,2.875488e+002
5.288240e+002,2.912914e+002
5.297882e+002,2.926759e+002
5.307524e+002,2.931865e+002
5.317167e+002,2.956707e+002
5.326809e+002,3.011174e+002
5.336451e+002,3.071569e+002
5.346094e+002,3.129953e+002
5.355736e+002,3.181168e+002
5.365378e+002,3.223600e+002
5.375021e+002,3.265757e+002
5.384663e+002,3.305689e+002
5.394305e+002,3.339697e+002
5.403948e+002,3.371227e+002
5.413590e+002,3.400093e+002
5.423232e+002,3.421393e+002
5.432875e+002,3.442981e+002
5.442517e+002,3.490222e+002
5.452159e+002,3.551247e+002
5.461802e+002,3.609040e+002
5.471444e+002,3.649611e+002
5.481086e+002,3.667593e+002
5.490729e+002,3.661435e+002
5.500371e+002,3.644995e+002
5.510013e+002,3.639117e+002
5.519656e+002,3.653816e+002
5.529298e+002,3.685916e+002
5.538940e+002,3.713820e+002
5.548583e+002,3.719090e+002
5.558225e+002,3.719104e+002
5.567867e+002,3.722059e+002
5.577510e+002,3.725823e+002
5.587152e+002,3.723467e+002
5.596794e+002,3.712477e+002
5.606437e+002,3.702731e+002
5.616079e+002,3.695435e+002
5.625721e+002,3.688258e+002
5.635364e+002,3.679879e+002
5.645006e+002,3.669228e+002
5.654648e+002,3.649689e+002
5.664291e+002,3.604233e+002
5.673933e+002,3.544958e+002
5.683575e+002,3.499247e+002
5.693218e+002,3.480961e+002
5.702860e+002,3.483481e+002
5.712502e+002,3.475084e+002
5.722145e+002,3.457600e+002
5.731787e+002,3.432601e+002
5.741429e+002,3.404571e+002
5.751072e+002,3.377892e+002
5.760714e+002,3.355318e+002
5.770356e+002,3.334643e+002
5.779999e+002,3.322767e+002
5.789641e+002,3.322376e+002
5.799283e+002,3.325272e+002
5.808926e+002,3.318723e+002
5.818568e+002,3.289924e+002
5.828210e+002,3.241470e+002
5.837853e+002,3.202678e+002
5.847495e+002,3.176784e+002
5.857137e+002,3.156649e+002
5.866780e+002,3.134909e+002
5.876422e+002,3.111361e+002
5.886064e+002,3.084053e+002
5.895707e+002,3.043553e+002
5.905349e+002,3.011895e+002
5.914991e+002,3.004933e+002
5.924634e+002,3.019739e+002
5.934276e+002,3.022962e+002
5.943918e+002,2.982399e+002
5.953560e+002,2.937236e+002
5.963203e+002,2.900511e+002
5.972845e+002,2.873385e+002
5.982487e+002,2.852800e+002
5.992130e+002,2.840512e+002
6.001772e+002,2.839451e+002
6.011414e+002,2.820786e+002
6.021057e+002,2.772147e+002
6.030699e+002,2.712380e+002
6.040341e+002,2.673246e+002
6.049984e+002,2.678233e+002
6.059626e+002,2.653953e+002
6.069268e+002,2.595009e+002
6.078911e+002,2.536924e+002
6.088553e+002,2.490788e+002
6.098195e+002,2.453908e+002
6.107838e+002,2.425112e+002
6.117480e+002,2.425645e+002
6.127122e+002,2.430773e+002
6.136765e+002,2.420325e+002
6.146407e+002,2.392815e+002
6.156049e+002,2.362020e+002
6.165692e+002,2.353549e+002
6.175334e+002,2.364214e+002
6.184976e+002,2.349575e+002
6.194619e+002,2.307846e+002
6.204261e+002,2.256324e+002
6.213903e+002,2.213839e+002
6.223546e+002,2.178993e+002
6.233188e+002,2.146884e+002
6.242830e+002,2.120342e+002
6.252473e+002,2.090239e+002
6.262115e+002,2.047350e+002
6.271757e+002,1.992654e+002
6.281400e+002,1.948857e+002
6.291042e+002,1.947844e+002
6.300684e+002,1.954559e+002
6.310327e+002,1.949110e+002
6.319969e+002,1.931266e+002
6.329611e+002,1.914460e+002
6.339254e+002,1.918492e+002
6.348896e+002,1.935716e+002
6.358538e+002,1.919389e+002
6.368181e+002,1.866282e+002
6.377823e+002,1.803532e+002
6.387465e+002,1.758838e+002
6.397108e+002,1.735462e+002
6.406750e+002,1.724464e+002
6.416392e+002,1.731234e+002
6.426035e+002,1.731464e+002
6.435677e+002,1.715410e+002
6.445319e+002,1.683884e+002
6.454962e+002,1.644771e+002
6.464604e+002,1.587849e+002
6.474246e+002,1.540511e+002
6.483889e+002,1.525450e+002
6.493531e+002,1.534983e+002
6.503173e+002,1.548101e+002
6.512816e+002,1.542076e+002
6.522458e+002,1.517525e+002
6.532100e+002,1.483183e+002
6.541743e+002,1.438283e+002
6.551385e+002,1.396431e+002
6.561027e+002,1.364389e+002
6.570670e+002,1.339099e+002
6.580312e+002,1.328678e+002
6.589954e+002,1.351609e+002
6.599597e+002,1.361718e+002
6.609239e+002,1.340416e+002
6.618881e+002,1.296618e+002
6.628524e+002,1.258444e+002
6.638166e+002,1.247362e+002
6.647808e+002,1.245809e+002
6.657451e+002,1.233109e+002
6.667093e+002,1.210276e+002
6.676735e+002,1.185548e+002
6.686378e+002,1.167901e+002
6.696020e+002,1.157383e+002
6.705662e+002,1.144484e+002
6.715305e+002,1.130778e+002
6.724947e+002,1.110481e+002
6.734589e+002,1.078774e+002
6.744232e+002,1.039669e+002
6.753874e+002,1.014678e+002
6.763516e+002,1.014130e+002
6.773159e+002,1.018137e+002
6.782801e+002,1.026184e+002
6.792443e+002,1.030526e+002
6.802086e+002,1.021006e+002
6.811728e+002,9.902210e+001
6.821370e+002,9.481416e+001
6.831013e+002,9.103511e+001
6.840655e+002,8.797360e+001
6.850297e+002,8.576751e+001
6.859940e+002,8.435995e+001
6.869582e+002,8.346813e+001
6.879224e+002,8.235947e+001
6.888867e+002,8.080691e+001
6.898509e+002,7.911050e+001
6.908151e+002,7.772231e+001
6.917794e+002,7.662028e+001
6.927436e+002,7.517791e+001
6.937078e+002,7.210762e+001
6.946721e+002,7.059782e+001
6.956363e+002,7.355331e+001
6.966005e+002,7.744141e+001
6.975648e+002,7.832684e+001
6.985290e+002,7.442358e+001
6.994932e+002,6.827234e+001
7.004575e+002,6.484047e+001
7.014217e+002,6.307687e+001
7.023859e+002,6.123882e+001
7.033502e+002,5.898251e+001
7.043144e+002,5.685285e+001
7.052786e+002,5.579858e+001
7.062429e+002,5.632830e+001
7.072071e+002,5.570135e+001
7.081713e+002,5.350439e+001
7.091356e+002,5.121400e+001
7.100998e+002,4.985489e+001
7.110640e+002,4.940442e+001
7.120283e+002,4.916691e+001
7.129925e+002,4.920796e+001
7.139567e+002,4.916511e+001
7.149210e+002,4.852948e+001
7.158852e+002,4.752302e+001
7.168494e+002,4.712062e+001
7.178137e+002,4.888217e+001
7.187779e+002,5.219628e+001
7.197421e+002,5.253885e+001
7.207064e+002,4.946490e+001
7.216706e+002,4.575230e+001
7.226348e+002,4.432688e+001
7.235991e+002,4.597733e+001
7.245633e+002,4.652617e+001
7.255275e+002,4.404388e+001
7.264918e+002,4.161952e+001
7.274560e+002,4.055643e+001
7.284202e+002,4.079268e+001
7.293845e+002,4.145214e+001
7.303487e+002,4.216837e+001
7.313129e+002,4.253909e+001
7.322772e+002,4.212254e+001
7.332414e+002,4.130083e+001
7.342056e+002,4.076593e+001
7.351699e+002,4.103316e+001
7.361341e+002,4.202672e+001
7.370983e+002,4.275362e+001
7.380626e+002,4.269953e+001
7.390268e+002,4.185284e+001
7.399910e+002,3.989410e+001
7.409553e+002,3.777569e+001
7.419195e+002,3.743622e+001
7.428837e+002,3.970492e+001
7.438480e+002,4.085741e+001
7.448122e+002,4.010890e+001
7.457764e+002,3.930334e+001
7.467407e+002,3.989878e+001
7.477049e+002,4.229355e+001
7.486691e+002,4.553873e+001
7.496334e+002,4.853146e+001
7.505976e+002,5.054161e+001
7.515618e+002,5.119794e+001
7.525261e+002,5.062106e+001
7.534903e+002,4.930054e+001
7.544545e+002,4.784019e+001
7.554188e+002,4.639737e+001
7.563830e+002,4.708089e+001
7.573472e+002,5.039847e+001
7.583115e+002,5.321818e+001
7.592757e+002,5.409936e+001
7.602399e+002,5.360157e+001
7.612042e+002,5.365818e+001
7.621684e+002,5.390175e+001
7.631326e+002,5.465900e+001
7.640969e+002,5.699962e+001
7.650611e+002,5.997704e+001
7.660253e+002,6.214171e+001
7.669896e+002,6.261188e+001
7.679538e+002,6.249910e+001
7.689180e+002,6.380058e+001
7.698823e+002,6.526917e+001
7.708465e+002,6.564623e+001
7.718107e+002,6.466154e+001
7.727750e+002,6.329073e+001
7.737392e+002,6.363845e+001
7.747034e+002,6.803256e+001
7.756677e+002,7.046782e+001
7.766319e+002,6.861194e+001
7.775961e+002,6.562344e+001
7.785604e+002,6.448651e+001
7.795246e+002,6.598277e+001
7.804888e+002,6.773672e+001
7.814531e+002,6.721682e+001
7.824173e+002,6.634762e+001
7.833815e+002,6.694608e+001
7.843458e+002,6.907713e+001
7.853100e+002,7.139131e+001
7.862742e+002,7.199320e+001
7.872385e+002,7.034651e+001
7.882027e+002,6.877094e+001
7.891669e+002,6.705058e+001
7.901312e+002,6.545537e+001
7.910954e+002,6.482037e+001
7.920596e+002,6.544818e+001
7.930239e+002,6.610896e+001
7.939881e+002,6.569920e+001
7.949523e+002,6.571950e+001
7.959166e+002,6.695672e+001
7.968808e+002,6.846030e+001
7.978450e+002,6.905142e+001
7.988093e+002,6.817453e+001
7.997735e+002,6.659135e+001
8.007377e+002,6.499870e+001
8.017020e+002,6.370777e+001
8.026662e+002,6.396603e+001
8.036304e+002,6.621510e+001
8.045947e+002,6.867442e+001
8.055589e+002,6.760777e+001
8.065231e+002,6.022891e+001
8.074874e+002,5.578787e+001
8.084516e+002,5.606260e+001
8.094158e+002,5.699688e+001
8.103801e+002,5.672865e+001
8.113443e+002,5.544475e+001
8.123085e+002,5.395943e+001
8.132728e+002,5.061799e+001
8.142370e+002,4.808917e+001
8.152012e+002,4.927575e+001
8.161655e+002,5.207721e+001
8.171297e+002,5.304462e+001
8.180939e+002,5.008059e+001
8.190582e+002,4.482610e+001
8.200224e+002,4.150979e+001
8.209866e+002,3.955542e+001
8.219509e+002,3.859398e+001
8.229151e+002,3.907542e+001
8.238793e+002,4.009324e+001
8.248436e+002,3.969133e+001
8.258078e+002,3.705298e+001
8.267720e+002,3.518526e+001
8.277363e+002,3.493828e+001
8.287005e+002,3.480080e+001
8.296647e+002,3.432074e+001
8.306290e+002,3.343486e+001
8.315932e+002,3.194609e+001
8.325574e+002,2.913237e+001
8.335217e+002,2.574041e+001
8.344859e+002,2.270094e+001
8.354501e+002,1.998666e+001
8.364144e+002,1.827307e+001
8.373786e+002,1.846140e+001
8.383428e+002,2.063570e+001
8.393071e+002,2.165223e+001
8.402713e+002,2.059669e+001
8.412355e+002,1.960139e+001
8.421998e+002,1.850045e+001
8.431640e+002,1.757982e+001
8.441282e+002,1.760377e+001
8.450925e+002,1.915305e+001
8.460567e+002,2.002864e+001
8.470209e+002,1.764117e+001
8.479852e+002,1.463750e+001
8.489494e+002,1.347326e+001
8.499136e+002,1.440442e+001
8.508779e+002,1.579274e+001
8.518421e+002,1.532725e+001
8.528063e+002,1.297137e+001
8.537706e+002,1.210416e+001
8.547348e+002,1.319094e+001
8.556990e+002,1.447657e+001
8.566633e+002,1.463684e+001
8.576275e+002,1.372784e+001
8.585917e+002,1.335835e+001
8.595560e+002,1.512534e+001
8.605202e+002,1.599334e+001
8.614844e+002,1.459982e+001
8.624487e+002,1.254504e+001
8.634129e+002,1.122215e+001
8.643771e+002,1.092747e+001
8.653414e+002,1.089401e+001
8.663056e+002,1.095951e+001
8.672698e+002,1.167931e+001
8.682341e+002,1.263673e+001
8.691983e+002,1.338571e+001
8.701625e+002,1.403992e+001
8.711268e+002,1.497240e+001
8.720910e+002,1.618667e+001
8.730552e+002,1.591695e+001
8.740195e+002,1.548238e+001
8.749837e+002,1.485390e+001
8.759479e+002,1.244596e+001
8.769122e+002,9.272827e+000
8.778764e+002,7.903656e+000
8.788406e+002,9.729744e+000
8.798049e+002,1.141991e+001
8.807691e+002,1.033096e+001
8.817333e+002,8.633270e+000
8.826976e+002,8.548798e+000
8.836618e+002,1.044511e+001
8.846260e+002,1.275854e+001
8.855903e+002,1.291982e+001
8.865545e+002,1.031004e+001
8.875187e+002,8.957481e+000
8.884830e+002,9.667130e+000
8.894472e+002,1.063507e+001
8.904114e+002,1.089813e+001
8.913757e+002,1.067572e+001
8.923399e+002,1.074825e+001
8.933041e+002,1.076640e+001
8.942684e+002,1.088867e+001
8.952326e+002,1.158109e+001
8.961968e+002,1.257935e+001
8.971611e+002,1.365436e+001
8.981253e+002,1.483495e+001
8.990895e+002,1.645300e+001
9.000538e+002,1.901404e+001
9.010180e+002,2.197022e+001
9.019822e+002,2.322372e+001
9.029465e+002,2.239252e+001
9.039107e+002,2.126566e+001
9.048749e+002,2.151521e+001
9.058392e+002,2.312617e+001
9.068034e+002,2.434259e+001
9.077676e+002,2.470625e+001
9.087319e+002,2.545094e+001
9.096961e+002,2.748410e+001
9.106603e+002,3.011321e+001
9.116246e+002,3.211581e+001
9.125888e+002,3.279663e+001
9.135530e+002,3.291380e+001
9.145173e+002,3.352866e+001
9.154815e+002,3.398111e+001
9.164457e+002,3.370072e+001
9.174100e+002,3.304339e+001
9.183742e+002,3.289289e+001
9.193384e+002,3.402854e+001
9.203027e+002,3.646815e+001
9.212669e+002,3.942406e+001
9.222311e+002,4.288206e+001
9.231954e+002,4.488449e+001
9.241596e+002,4.503659e+001
9.251238e+002,4.446635e+001
9.260881e+002,4.444378e+001
9.270523e+002,4.513704e+001
9.280165e+002,4.628898e+001
9.289808e+002,4.788002e+001
9.299450e+002,4.991668e+001
9.309092e+002,5.209709e+001
9.318735e+002,5.440532e+001
9.328377e+002,5.752086e+001
9.338019e+002,6.247607e+001
9.347662e+002,6.916413e+001
9.357304e+002,7.143906e+001
9.366946e+002,6.822077e+001
9.376589e+002,6.600267e+001
9.386231e+002,6.651657e+001
9.395873e+002,6.881703e+001
9.405516e+002,7.182930e+001
9.415158e+002,7.650576e+001
9.424800e+002,7.987607e+001
9.434443e+002,7.989165e+001
9.444085e+002,7.926143e+001
9.453727e+002,7.970873e+001
9.463370e+002,8.133725e+001
9.473012e+002,8.299043e+001
9.482654e+002,8.334492e+001
9.492297e+002,8.267451e+001
9.501939e+002,8.460378e+001
9.511581e+002,8.989115e+001
9.521224e+002,9.377416e+001
9.530866e+002,9.284982e+001
9.540508e+002,8.902899e+001
9.550151e+002,8.757274e+001
9.559793e+002,8.936545e+001
9.569435e+002,9.009378e+001
9.579078e+002,8.974216e+001
9.588720e+002,8.965116e+001
9.598362e+002,9.024786e+001
9.608005e+002,9.123110e+001
9.617647e+002,9.198528e+001
9.627289e+002,9.209525e+001
9.636932e+002,9.174696e+001
9.646574e+002,9.137598e+001
9.656216e+002,9.069794e+001
9.665859e+002,8.933552e+001
9.675501e+002,8.719204e+001
9.685143e+002,8.554625e+001
9.694786e+002,8.688605e+001
9.704428e+002,9.290514e+001
9.714070e+002,9.783566e+001
9.723713e+002,1.002145e+002
9.733355e+002,1.013275e+002
9.742997e+002,1.017994e+002
9.752640e+002,1.024712e+002
9.762282e+002,1.039529e+002
9.771924e+002,1.059980e+002
9.781567e+002,1.086439e+002
9.791209e+002,1.132668e+002
9.800851e+002,1.186425e+002
9.810494e+002,1.230157e+002
9.820136e+002,1.261071e+002
9.829778e+002,1.285725e+002
9.839421e+002,1.309821e+002
9.849063e+002,1.328736e+002
9.858705e+002,1.332371e+002
9.868348e+002,1.325451e+002
9.877990e+002,1.321994e+002
9.887632e+002,1.324178e+002
9.897275e+002,1.328736e+002
9.906917e+002,1.326122e+002
9.916559e+002,1.306343e+002
9.926202e+002,1.285278e+002
9.935844e+002,1.298221e+002
9.945486e+002,1.320521e+002
9.955129e+002,1.328925e+002
9.964771e+002,1.324270e+002
9.974413e+002,1.319283e+002
9.984056e+002,1.323615e+002
9.993698e+002,1.332947e+002
1.000334e+003,1.336941e+002
1.001298e+003,1.338787e+002
1.002263e+003,1.336462e+002
1.003227e+003,1.316044e+002
1.004191e+003,1.298371e+002
1.005155e+003,1.313647e+002
1.006119e+003,1.365964e+002
1.007084e+003,1.410193e+002
1.008048e+003,1.423260e+002
1.009012e+003,1.430524e+002
1.009976e+003,1.437513e+002
1.010941e+003,1.443402e+002
1.011905e+003,1.448417e+002
1.012869e+003,1.453392e+002
1.013833e+003,1.458583e+002
1.014798e+003,1.466093e+002
1.015762e+003,1.484603e+002
1.016726e+003,1.506328e+002
1.017690e+003,1.528095e+002
1.018654e+003,1.553312e+002
1.019619e+003,1.582239e+002
1.020583e+003,1.612860e+002
1.021547e+003,1.644782e+002
1.022511e+003,1.676290e+002
1.023476e+003,1.705744e+002
1.024440e+003,1.741469e+002
1.025404e+003,1.778361e+002
1.026368e+003,1.808341e+002
1.027333e+003,1.830269e+002
1.028297e+003,1.851951e+002
1.029261e+003,1.882044e+002
1.030225e+003,1.914937e+002
1.031190e+003,1.931274e+002
1.032154e+003,1.935339e+002
1.033118e+003,1.951926e+002
1.034082e+003,1.993016e+002
1.035047e+003,2.046824e+002
1.036011e+003,2.091815e+002
1.036975e+003,2.124247e+002
1.037939e+003,2.147564e+002
1.038903e+003,2.165224e+002
1.039868e+003,2.188261e+002
1.040832e+003,2.215780e+002
1.041796e+003,2.247807e+002
1.042760e+003,2.288647e+002
1.043725e+003,2.341508e+002
1.044689e+003,2.395865e+002
1.045653e+003,2.426498e+002
1.046617e+003,2.434403e+002
1.047582e+003,2.446076e+002
1.048546e+003,2.473222e+002
1.049510e+003,2.510346e+002
1.050474e+003,2.542679e+002
1.051438e+003,2.566500e+002
1.052403e+003,2.609190e+002
1.053367e+003,2.699698e+002
1.054331e+003,2.769960e+002
1.055295e+003,2.794491e+002
1.056260e+003,2.799197e+002
1.057224e+003,2.802321e+002
1.058188e+003,2.814679e+002
1.059152e+003,2.848549e+002
1.060117e+003,2.920560e+002
1.061081e+003,3.018093e+002
1.062045e+003,3.084434e+002
1.063009e+003,3.113541e+002
1.063974e+003,3.133432e+002
1.064938e+003,3.158551e+002
1.065902e+003,3.194350e+002
1.066866e+003,3.243627e+002
1.067830e+003,3.304565e+002
1.068795e+003,3.359678e+002
1.069759e+003,3.415324e+002
1.070723e+003,3.462271e+002
1.071687e+003,3.493361e+002
1.072652e+003,3.519406e+002
1.073616e+003,3.552738e+002
1.074580e+003,3.595357e+002
1.075544e+003,3.638398e+002
1.076509e+003,3.674960e+002
1.077473e+003,3.708789e+002
1.078437e+003,3.748812e+002
1.079401e+003,3.800487e+002
1.080365e+003,3.847895e+002
1.081330e+003,3.869799e+002
1.082294e+003,3.870015e+002
1.083258e+003,3.886750e+002
1.084222e+003,3.934021e+002
1.085187e+003,3.978984e+002
1.086151e+003,4.015479e+002
1.087115e+003,4.048103e+002
1.088079e+003,4.080104e+002
1.089043e+003,4.109687e+002
1.090008e+003,4.131322e+002
1.090972e+003,4.141239e+002
1.091936e+003,4.142828e+002
1.092900e+003,4.142559e+002
1.093865e+003,4.140257e+002
1.094829e+003,4.139602e+002
1.095793e+003,4.149207e+002
1.096757e+003,4.156615e+002
1.097722e+003,4.140700e+002
1.098686e+003,4.096221e+002
1.099650e+003,4.047765e+002
1.100614e+003,4.002485e+002
1.101578e+003,3.969601e+002
1.102543e+003,3.950256e+002
1.103507e+003,3.939156e+002
1.104471e+003,3.932836e+002
1.105435e+003,3.923329e+002
1.106400e+003,3.899049e+002
1.107364e+003,3.854560e+002
1.108328e+003,3.800440e+002
1.109292e+003,3.755634e+002
1.110257e+003,3.722526e+002
1.111221e+003,3.688829e+002
1.112185e+003,3.638312e+002
1.113149e+003,3.577591e+002
1.114114e+003,3.524864e+002
1.115078e+003,3.485916e+002
1.116042e+003,3.441801e+002
1.117006e+003,3.378464e+002
1.117970e+003,3.324706e+002
1.118935e+003,3.296535e+002
1.119899e+003,3.273306e+002
1.120863e+003,3.232377e+002
1.121827e+003,3.170598e+002
1.122792e+003,3.103729e+002
1.123756e+003,3.045716e+002
1.124720e+003,2.988940e+002
1.125684e+003,2.922504e+002
1.126649e+003,2.851669e+002
1.127613e+003,2.797510e+002
1.128577e+003,2.777805e+002
1.129541e+003,2.770451e+002
1.130505e+003,2.739487e+002
1.131470e+003,2.679083e+002
1.132434e+003,2.613632e+002
1.133398e+003,2.552702e+002
1.134362e+003,2.497025e+002
1.135327e+003,2.437945e+002
1.136291e+003,2.382742e+002
1.137255e+003,2.349966e+002
1.138219e+003,2.343319e+002
1.139184e+003,2.339775e+002
1.140148e+003,2.305274e+002
1.141112e+003,2.234893e+002
1.142076e+003,2.157178e+002
1.143041e+003,2.069643e+002
1.144005e+003,2.004484e+002
1.144969e+003,1.986411e+002
1.145933e+003,1.989227e+002
1.146897e+003,1.970904e+002
1.147862e+003,1.923432e+002
1.148826e+003,1.874931e+002
1.149790e+003,1.849235e+002
1.150754e+003,1.818925e+002
1.151719e+003,1.756602e+002
1.152683e+003,1.683090e+002
1.153647e+003,1.630941e+002
1.154611e+003,1.612316e+002
1.155576e+003,1.612504e+002
1.156540e+003,1.609056e+002
1.157504e+003,1.596508e+002
1.158468e+003,1.561938e+002
1.159432e+003,1.496091e+002
1.160397e+003,1.440370e+002
1.161361e+003,1.412646e+002
1.162325e+003,1.400329e+002
1.163289e+003,1.387985e+002
1.164254e+003,1.370013e+002
1.165218e+003,1.340083e+002
1.166182e+003,1.288568e+002
1.167146e+003,1.239930e+002
1.168111e+003,1.215842e+002
1.169075e+003,1.204259e+002
1.170039e+003,1.188480e+002
1.171003e+003,1.162589e+002
1.171968e+003,1.127358e+002
1.172932e+003,1.082754e+002
1.173896e+003,1.029498e+002
1.174860e+003,9.983576e+001
1.175824e+003,1.006929e+002
1.176789e+003,1.005185e+002
1.177753e+003,9.850903e+001
1.178717e+003,9.584786e+001
1.179681e+003,9.328419e+001
1.180646e+003,9.095214e+001
1.181610e+003,8.902305e+001
1.182574e+003,8.777549e+001
1.183538e+003,8.657890e+001
1.184503e+003,8.442218e+001
1.185467e+003,8.189406e+001
1.186431e+003,8.004588e+001
1.187395e+003,7.890620e+001
1.188359e+003,7.755285e+001
1.189324e+003,7.539696e+001
1.190288e+003,7.280399e+001
1.191252e+003,7.003477e+001
1.192216e+003,6.634624e+001
1.193181e+003,6.317377e+001
1.194145e+003,6.061977e+001
1.195109e+003,5.789715e+001
1.196073e+003,5.475399e+001
1.197038e+003,5.164442e+001
1.198002e+003,4.899731e+001
1.198966e+003,4.687054e+001
1.199930e+003,4.566266e+001
1.200895e+003,4.686427e+001
1.201859e+003,4.949960e+001
1.202823e+003,4.941460e+001
1.203787e+003,4.588754e+001
1.204751e+003,4.230872e+001
1.205716e+003,4.153117e+001
1.206680e+003,4.241123e+001
1.207644e+003,4.129996e+001
1.208608e+003,3.753837e+001
1.209573e+003,3.369079e+001
1.210537e+003,3.016908e+001
1.211501e+003,2.783512e+001
1.212465e+003,2.780006e+001
1.213430e+003,2.894604e+001
1.214394e+003,2.894572e+001
1.215358e+003,2.687064e+001
1.216322e+003,2.453001e+001
1.217286e+003,2.497044e+001
1.218251e+003,2.800391e+001
1.219215e+003,2.773635e+001
1.220179e+003,2.390508e+001
1.221143e+003,2.052151e+001
1.222108e+003,1.803022e+001
1.223072e+003,1.675653e+001
1.224036e+003,1.730182e+001
1.225000e+003,1.911475e+001
1.225965e+003,1.990437e+001
1.226929e+003,1.862118e+001
1.227893e+003,1.633251e+001
1.228857e+003,1.441286e+001
1.229822e+003,1.369537e+001
1.230786e+003,1.483904e+001
1.231750e+003,1.706486e+001
1.232714e+003,1.809232e+001
1.233678e+003,1.604198e+001
1.234643e+003,1.185729e+001
1.235607e+003,9.676102e+000
1.236571e+003,1.136430e+001
1.237535e+003,1.267970e+001
1.238500e+003,1.356018e+001
1.239464e+003,1.347527e+001
1.240428e+003,1.104966e+001
1.241392e+003,7.477455e+000
1.242357e+003,5.234917e+000
1.243321e+003,5.304573e+000
1.244285e+003,6.470970e+000
1.245249e+003,7.892517e+000
1.246214e+003,9.270782e+000
1.247178e+003,9.540543e+000
1.248142e+003,8.628365e+000
1.249106e+003,8.009644e+000
1.250070e+003,8.633797e+000
1.251035e+003,9.814346e+000
1.251999e+003,1.037406e+001
1.252963e+003,1.023743e+001
1.253927e+003,9.753082e+000
1.254892e+003,8.624214e+000
1.255856e+003,8.087090e+000
1.256820e+003,8.409225e+000
1.257784e+003,9.033005e+000
1.258749e+003,9.702629e+000
1.259713e+003,1.028938e+001
1.260677e+003,1.070797e+001
1.261641e+003,1.087847e+001
1.262605e+003,1.065701e+001
1.263570e+003,9.757881e+000
1.264534e+003,8.284607e+000
1.265498e+003,7.563644e+000
1.266462e+003,7.966667e+000
1.267427e+003,8.535156e+000
1.268391e+003,8.621231e+000
1.269355e+003,8.082741e+000
1.270319e+003,7.120308e+000
1.271284e+003,6.028488e+000
1.272248e+003,4.965179e+000
1.273212e+003,3.994095e+000
1.274176e+003,4.151627e+000
1.275141e+003,5.111893e+000
1.276105e+003,5.994843e+000
1.277069e+003,6.837273e+000
1.278033e+003,7.755875e+000
1.278997e+003,8.111069e+000
1.279962e+003,7.244408e+000
1.280926e+003,5.888313e+000
1.281890e+003,5.948006e+000
1.282854e+003,6.783325e+000
1.283819e+003,6.666939e+000
1.284783e+003,5.730309e+000
1.285747e+003,4.881516e+000
1.286711e+003,5.348160e+000
1.287676e+003,6.512436e+000
1.288640e+003,6.761200e+000
1.289604e+003,5.496109e+000
1.290568e+003,3.726814e+000
1.291532e+003,2.086624e+000
1.292497e+003,9.376373e-001
1.293461e+003,1.603859e+000
1.294425e+003,3.950989e+000
1.295389e+003,6.107941e+000
1.296354e+003,7.451729e+000
1.297318e+003,7.925949e+000
1.298282e+003,7.034767e+000
1.299246e+003,5.003090e+000
1.300211e+003,4.077797e+000
1.301175e+003,5.465019e+000
1.302139e+003,6.830818e+000
1.303103e+003,6.239357e+000
1.304068e+003,5.222542e+000
1.305032e+003,5.332687e+000
1.305996e+003,5.954811e+000
1.306960e+003,5.344078e+000
1.307924e+003,3.180389e+000
1.308889e+003,1.600128e+000
1.309853e+003,3.139938e+000
1.310817e+003,6.762825e+000
1.311781e+003,7.248077e+000
1.312746e+003,3.871040e+000
1.313710e+003,2.412094e+000
1.314674e+003,4.640663e+000
1.315638e+003,7.054115e+000
1.316603e+003,6.090309e+000
1.317567e+003,2.480881e+000
1.318531e+003,0.000000e+000
1.319495e+003,6.518173e-001
1.320459e+003,2.981262e+000
1.321424e+003,5.263824e+000
1.322388e+003,6.837173e+000
1.323352e+003,7.387825e+000
1.324316e+003,7.160889e+000
1.325281e+003,7.078743e+000
1.326245e+003,7.614586e+000
1.327209e+003,8.127785e+000
1.328173e+003,7.243896e+000
1.329138e+003,4.975624e+000
1.330102e+003,4.951248e+000
1.331066e+003,9.708374e+000
1.332030e+003,1.320110e+001
1.332995e+003,1.263097e+001
1.333959e+003,1.088519e+001
1.334923e+003,9.908707e+000
1.335887e+003,9.360451e+000
1.336851e+003,7.980293e+000
1.337816e+003,5.598427e+000
1.338780e+003,3.668297e+000
1.339744e+003,3.729568e+000
1.340708e+003,5.207161e+000
1.341673e+003,6.197456e+000
1.342637e+003,7.282425e+000
1.343601e+003,7.010170e+000
1.344565e+003,3.955505e+000
1.345530e+003,1.525177e+000
1.346494e+003,2.387581e+000
1.347458e+003,5.643112e+000
1.348422e+003,9.000038e+000
1.349386e+003,1.167112e+001
1.350351e+003,1.278789e+001
1.351315e+003,1.153936e+001
1.352279e+003,9.413162e+000
1.353243e+003,8.474159e+000
1.354208e+003,8.511551e+000
1.355172e+003,8.046989e+000
1.356136e+003,6.001869e+000
1.357100e+003,3.967079e+000
1.358065e+003,4.485809e+000
1.359029e+003,7.417152e+000
1.359993e+003,9.736809e+000
1.360957e+003,1.186842e+001
1.361922e+003,1.266734e+001
1.362886e+003,1.000874e+001
1.363850e+003,7.783936e+000
1.364814e+003,8.054367e+000
1.365778e+003,9.563705e+000
1.366743e+003,1.078124e+001
1.367707e+003,1.116058e+001
1.368671e+003,1.069460e+001
1.369635e+003,9.431252e+000
1.370600e+003,8.036201e+000
1.371564e+003,7.968246e+000
1.372528e+003,9.463654e+000
1.373492e+003,1.026760e+001
1.374457e+003,9.548111e+000
1.375421e+003,8.648460e+000
1.376385e+003,8.464882e+000
1.377349e+003,8.809380e+000
1.378313e+003,9.239830e+000
1.379278e+003,9.496758e+000
1.380242e+003,9.459877e+000
1.381206e+003,9.349937e+000
1.382170e+003,9.068436e+000
1.383135e+003,7.376480e+000
1.384099e+003,5.121483e+000
1.385063e+003,4.813759e+000
1.386027e+003,6.344482e+000
1.386992e+003,8.016754e+000
1.387956e+003,1.002882e+001
1.388920e+003,1.208171e+001
1.389884e+003,1.273020e+001
1.390849e+003,1.200040e+001
1.391813e+003,1.142722e+001
1.392777e+003,1.011693e+001
1.393741e+003,9.008423e+000
1.394705e+003,1.092080e+001
1.395670e+003,1.338837e+001
1.396634e+003,1.268729e+001
1.397598e+003,9.155724e+000
1.398562e+003,6.225105e+000
1.399527e+003,6.075935e+000
1.400491e+003,7.357437e+000
1.401455e+003,7.321251e+000
1.402419e+003,5.813766e+000
1.403384e+003,5.697029e+000
1.404348e+003,7.789658e+000
1.405312e+003,8.341278e+000
1.406276e+003,7.141487e+000
1.407240e+003,7.082039e+000
1.408205e+003,9.579414e+000
1.409169e+003,1.272334e+001
1.410133e+003,1.365311e+001
1.411097e+003,1.182830e+001
1.412062e+003,9.746483e+000
1.413026e+003,1.018926e+001
1.413990e+003,1.264213e+001
1.414954e+003,1.352884e+001
1.415919e+003,1.212997e+001
1.416883e+003,1.073044e+001
1.417847e+003,8.573830e+000
1.418811e+003,6.916496e+000
1.419776e+003,6.882591e+000
1.420740e+003,7.828545e+000
1.421704e+003,8.971466e+000
1.422668e+003,1.025922e+001
1.423632e+003,1.119538e+001
1.424597e+003,1.138874e+001
1.425561e+003,1.118922e+001
1.426525e+003,1.078249e+001
1.427489e+003,1.046647e+001
1.428454e+003,1.057331e+001
1.429418e+003,1.108678e+001
1.430382e+003,1.183517e+001
1.431346e+003,1.256049e+001
1.432311e+003,1.261664e+001
1.433275e+003,1.149549e+001
1.434239e+003,1.004787e+001
1.435203e+003,1.048190e+001
1.436167e+003,1.314330e+001
1.437132e+003,1.498067e+001
1.438096e+003,1.382726e+001
1.439060e+003,1.225333e+001
1.440024e+003,1.302633e+001
1.440989e+003,1.500210e+001
1.441953e+003,1.503896e+001
1.442917e+003,1.224912e+001
1.443881e+003,9.002930e+000
1.444846e+003,7.878433e+000
1.445810e+003,8.914482e+000
1.446774e+003,1.098605e+001
1.447738e+003,1.430623e+001
1.448703e+003,1.622138e+001
1.449667e+003,1.672614e+001
1.450631e+003,1.631429e+001
1.451595e+003,1.470119e+001
1.452559e+003,1.311839e+001
1.453524e+003,1.220009e+001
1.454488e+003,1.205125e+001
1.455452e+003,1.290212e+001
1.456416e+003,1.472462e+001
1.457381e+003,1.655408e+001
1.458345e+003,1.729536e+001
1.459309e+003,1.693221e+001
1.460273e+003,1.638181e+001
1.461238e+003,1.647045e+001
1.462202e+003,1.656356e+001
1.463166e+003,1.592065e+001
1.464130e+003,1.574095e+001
1.465094e+003,1.670939e+001
1.466059e+003,1.757211e+001
1.467023e+003,1.692569e+001
1.467987e+003,1.503703e+001
1.468951e+003,1.313843e+001
1.469916e+003,1.185593e+001
1.470880e+003,1.199334e+001
1.471844e+003,1.427671e+001
1.472808e+003,1.688168e+001
1.473773e+003,1.750136e+001
1.474737e+003,1.642458e+001
1.475701e+003,1.541640e+001
1.476665e+003,1.526627e+001
1.477630e+003,1.601038e+001
1.478594e+003,1.772231e+001
1.479558e+003,1.964868e+001
1.480522e+003,1.967831e+001
1.481486e+003,1.732077e+001
1.482451e+003,1.598170e+001
1.483415e+003,1.819301e+001
1.484379e+003,2.085080e+001
1.485343e+003,2.102068e+001
1.486308e+003,2.014221e+001
1.487272e+003,2.092546e+001
1.488236e+003,2.365663e+001
1.489200e+003,2.586188e+001
1.490165e+003,2.536156e+001
1.491129e+003,2.324370e+001
1.492093e+003,2.231731e+001
1.493057e+003,2.289673e+001
1.494021e+003,2.423305e+001
1.494986e+003,2.758330e+001
1.495950e+003,2.965022e+001
1.496914e+003,2.732452e+001
1.497878e+003,2.478403e+001
1.498843e+003,2.546860e+001
1.499807e+003,2.809506e+001
1.500771e+003,2.991989e+001
1.501735e+003,3.012212e+001
1.502700e+003,2.984102e+001
1.503664e+003,3.003252e+001
1.504628e+003,3.040651e+001
1.505592e+003,3.065735e+001
1.506557e+003,3.139250e+001
1.507521e+003,3.180240e+001
1.508485e+003,3.065269e+001
1.509449e+003,3.003020e+001
1.510413e+003,3.100342e+001
1.511378e+003,3.162784e+001
1.512342e+003,2.986011e+001
1.513306e+003,2.714505e+001
1.514270e+003,2.663234e+001
1.515235e+003,2.894763e+001
1.516199e+003,3.137024e+001
1.517163e+003,3.139252e+001
1.518127e+003,2.988496e+001
1.519092e+003,2.916483e+001
1.520056e+003,2.936279e+001
1.521020e+003,2.861765e+001
1.521984e+003,2.550661e+001
1.522948e+003,2.345703e+001
1.523913e+003,2.479546e+001
1.524877e+003,2.708543e+001
1.525841e+003,2.801471e+001
1.526805e+003,2.755489e+001
1.527770e+003,2.600162e+001
1.528734e+003,2.339496e+001
1.529698e+003,2.125479e+001
1.530662e+003,2.152992e+001
1.531627e+003,2.338635e+001
1.532591e+003,2.388544e+001
1.533555e+003,2.288824e+001
1.534519e+003,2.216225e+001
1.535484e+003,2.206247e+001
1.536448e+003,2.198039e+001
1.537412e+003,2.083028e+001
1.538376e+003,1.982037e+001
1.539340e+003,2.133775e+001
1.540305e+003,2.448514e+001
1.541269e+003,2.544260e+001
1.542233e+003,2.278329e+001
1.543197e+003,1.901884e+001
1.544162e+003,1.586664e+001
1.545126e+003,1.356003e+001
1.546090e+003,1.353931e+001
1.547054e+003,1.626378e+001
1.548019e+003,1.885367e+001
1.548983e+003,1.957411e+001
1.549947e+003,1.985782e+001
1.550911e+003,2.055069e+001
1.551875e+003,2.157469e+001
1.552840e+003,2.401416e+001
1.553804e+003,2.744968e+001
1.554768e+003,2.833260e+001
1.555732e+003,2.520573e+001
1.556697e+003,2.158640e+001
1.557661e+003,1.994699e+001
1.558625e+003,1.900125e+001
1.559589e+003,1.611937e+001
1.560554e+003,1.256342e+001
1.561518e+003,1.184604e+001
1.562482e+003,1.450835e+001
1.563446e+003,1.721970e+001
1.564411e+003,1.925136e+001
1.565375e+003,2.008392e+001
1.566339e+003,1.788129e+001
1.567303e+003,1.363733e+001
1.568267e+003,1.163258e+001
1.569232e+003,1.260405e+001
1.570196e+003,1.350690e+001
1.571160e+003,1.271892e+001
1.572124e+003,1.170039e+001
1.573089e+003,1.291803e+001
1.574053e+003,1.520490e+001
1.575017e+003,1.564789e+001
1.575981e+003,1.399609e+001
1.576946e+003,1.310194e+001
1.577910e+003,1.420238e+001
1.578874e+003,1.568642e+001
1.579838e+003,1.650822e+001
1.580802e+003,1.748947e+001
1.581767e+003,1.954121e+001
1.582731e+003,2.224196e+001
1.583695e+003,2.288356e+001
1.584659e+003,1.979140e+001
1.585624e+003,1.610820e+001
1.586588e+003,1.475305e+001
1.587552e+003,1.504727e+001
1.588516e+003,1.603322e+001
1.589481e+003,1.723602e+001
1.590445e+003,1.772533e+001
1.591409e+003,1.679716e+001
1.592373e+003,1.627458e+001
1.593338e+003,1.902051e+001
1.594302e+003,2.360561e+001
1.595266e+003,2.595110e+001
1.596230e+003,2.610970e+001
1.597194e+003,2.537982e+001
1.598159e+003,2.318358e+001
1.599123e+003,2.128880e+001
1.600087e+003,2.136205e+001
1.601051e+003,2.190501e+001
1.602016e+003,2.123541e+001
1.602980e+003,1.970358e+001
1.603944e+003,1.888640e+001
1.604908e+003,1.946451e+001
1.605873e+003,2.009816e+001
1.606837e+003,1.959625e+001
1.607801e+003,1.884930e+001
1.608765e+003,1.888953e+001
1.609729e+003,1.914961e+001
1.610694e+003,1.942569e+001
1.611658e+003,2.015068e+001
1.612622e+003,2.076527e+001
1.613586e+003,2.132184e+001
1.614551e+003,2.234422e+001
1.615515e+003,2.376724e+001
1.616479e+003,2.482877e+001
1.617443e+003,2.514622e+001
1.618408e+003,2.474889e+001
1.619372e+003,2.346632e+001
1.620336e+003,2.120024e+001
1.621300e+003,1.934779e+001
1.622265e+003,1.949553e+001
1.623229e+003,2.086526e+001
1.624193e+003,2.119009e+001
1.625157e+003,2.027798e+001
1.626121e+003,1.995262e+001
1.627086e+003,2.092444e+001
1.628050e+003,2.222517e+001
1.629014e+003,2.359587e+001
1.629978e+003,2.421255e+001
1.630943e+003,2.307477e+001
1.631907e+003,2.094391e+001
1.632871e+003,1.975487e+001
1.633835e+003,2.019243e+001
1.634800e+003,2.090918e+001
1.635764e+003,2.080946e+001
1.636728e+003,2.082372e+001
1.637692e+003,2.219374e+001
1.638656e+003,2.416484e+001
1.639621e+003,2.504015e+001
1.640585e+003,2.461447e+001
1.641549e+003,2.334268e+001
1.642513e+003,2.171609e+001
1.643478e+003,2.074541e+001
1.644442e+003,2.072169e+001
1.645406e+003,2.109671e+001
1.646370e+003,2.120221e+001
1.647335e+003,2.099590e+001
1.648299e+003,2.150784e+001
1.649263e+003,2.347702e+001
1.650227e+003,2.525937e+001
1.651192e+003,2.563402e+001
1.652156e+003,2.492229e+001
1.653120e+003,2.289973e+001
1.654084e+003,2.006670e+001
1.655048e+003,1.996962e+001
1.656013e+003,2.373657e+001
1.656977e+003,2.735527e+001
1.657941e+003,2.860490e+001
1.658905e+003,2.780518e+001
1.659870e+003,2.488690e+001
1.660834e+003,2.149782e+001
1.661798e+003,2.047392e+001
1.662762e+003,2.182790e+001
1.663727e+003,2.338397e+001
1.664691e+003,2.457944e+001
1.665655e+003,2.532596e+001
1.666619e+003,2.544437e+001
1.667583e+003,2.543149e+001
1.668548e+003,2.593187e+001
1.669512e+003,2.660498e+001
1.670476e+003,2.667288e+001
1.671440e+003,2.628992e+001
1.672405e+003,2.642229e+001
1.673369e+003,2.756975e+001
1.674333e+003,2.890421e+001
1.675297e+003,2.895901e+001
1.676262e+003,2.793895e+001
1.677226e+003,2.733545e+001
1.678190e+003,2.745699e+001
1.679154e+003,2.733049e+001
1.680119e+003,2.582352e+001
1.681083e+003,2.464606e+001
1.682047e+003,2.622516e+001
1.683011e+003,2.884119e+001
1.683975e+003,2.893976e+001
1.684940e+003,2.675771e+001
1.685904e+003,2.551944e+001
1.686868e+003,2.644920e+001
1.687832e+003,2.827762e+001
1.688797e+003,2.980084e+001
1.689761e+003,3.028050e+001
1.690725e+003,2.856992e+001
1.691689e+003,2.451285e+001
1.692654e+003,2.293535e+001
1.693618e+003,2.643549e+001
1.694582e+003,2.969087e+001
1.695546e+003,3.030095e+001
1.696510e+003,2.984554e+001
1.697475e+003,3.002618e+001
1.698439e+003,3.062920e+001
1.699403e+003,3.072575e+001
1.700367e+003,3.034398e+001
1.701332e+003,3.017113e+001
1.702296e+003,3.048262e+001
1.703260e+003,3.107303e+001
1.704224e+003,3.158801e+001
1.705189e+003,3.192313e+001
1.706153e+003,3.280324e+001
1.707117e+003,3.427888e+001
1.708081e+003,3.486732e+001
1.709046e+003,3.630774e+001
1.710010e+003,3.782283e+001
1.710974e+003,3.728069e+001
1.711938e+003,3.676251e+001
1.712902e+003,3.790630e+001
1.713867e+003,3.945125e+001
1.714831e+003,4.017883e+001
1.715795e+003,4.051959e+001
1.716759e+003,4.177582e+001
1.717724e+003,4.421460e+001
1.718688e+003,4.572400e+001
1.719652e+003,4.336246e+001
1.720616e+003,3.852863e+001
1.721581e+003,3.855045e+001
1.722545e+003,4.529524e+001
1.723509e+003,4.794159e+001
1.724473e+003,4.345746e+001
1.725438e+003,4.031610e+001
1.726402e+003,4.201064e+001
1.727366e+003,4.343155e+001
1.728330e+003,4.119164e+001
1.729294e+003,3.787056e+001
1.730259e+003,3.702704e+001
1.731223e+003,3.860326e+001
1.732187e+003,4.015378e+001
1.733151e+003,4.040407e+001
1.734116e+003,3.984421e+001
1.735080e+003,3.938762e+001
1.736044e+003,3.921661e+001
1.737008e+003,3.852017e+001
1.737973e+003,3.712004e+001
1.738937e+003,3.684445e+001
1.739901e+003,3.821523e+001
1.740865e+003,3.934023e+001
1.741829e+003,3.982088e+001
1.742794e+003,3.956648e+001
1.743758e+003,3.743784e+001
1.744722e+003,3.511145e+001
1.745686e+003,3.529221e+001
1.746651e+003,3.771375e+001
1.747615e+003,4.007712e+001
1.748579e+003,4.187363e+001
1.749543e+003,4.267976e+001
1.750508e+003,4.181583e+001
1.751472e+003,4.074748e+001
1.752436e+003,4.130699e+001
1.753400e+003,4.224190e+001
1.754365e+003,4.046855e+001
1.755329e+003,3.619258e+001
1.756293e+003,3.358260e+001
1.757257e+003,3.455321e+001
1.758221e+003,3.637773e+001
1.759186e+003,3.641724e+001
1.760150e+003,3.592494e+001
1.761114e+003,3.731625e+001
1.762078e+003,4.003404e+001
1.763043e+003,4.201613e+001
1.764007e+003,4.396356e+001
1.764971e+003,4.362505e+001
1.765935e+003,3.954918e+001
1.766900e+003,3.652660e+001
1.767864e+003,3.768834e+001
1.768828e+003,4.031989e+001
1.769792e+003,4.125766e+001
1.770756e+003,4.067090e+001
1.771721e+003,4.009969e+001
1.772685e+003,3.976373e+001
1.773649e+003,3.876648e+001
1.774613e+003,3.684033e+001
1.775578e+003,3.526892e+001
1.776542e+003,3.591595e+001
1.777506e+003,3.856624e+001
1.778470e+003,4.024077e+001
1.779435e+003,4.092665e+001
1.780399e+003,3.968347e+001
1.781363e+003,3.522501e+001
1.782327e+003,3.183829e+001
1.783292e+003,3.013620e+001
1.784256e+003,2.948660e+001
1.785220e+003,3.106944e+001
1.786184e+003,3.381128e+001
1.787148e+003,3.471909e+001
1.788113e+003,3.336682e+001
1.789077e+003,3.275688e+001
1.790041e+003,3.468356e+001
1.791005e+003,3.673799e+001
1.791970e+003,3.666017e+001
1.792934e+003,3.552542e+001
1.793898e+003,3.456120e+001
1.794862e+003,3.385944e+001
1.795827e+003,3.505679e+001
1.796791e+003,3.848395e+001
1.797755e+003,3.955266e+001
1.798719e+003,3.535320e+001
1.799683e+003,3.071487e+001
1.800648e+003,3.093283e+001
1.801612e+003,3.401048e+001
1.802576e+003,3.467218e+001
1.803540e+003,3.278104e+001
1.804505e+003,3.058130e+001
1.805469e+003,2.882022e+001
1.806433e+003,2.823915e+001
1.807397e+003,2.861908e+001
1.808362e+003,2.924525e+001
1.809326e+003,3.025740e+001
1.810290e+003,3.104622e+001
1.811254e+003,3.037419e+001
1.812219e+003,2.891451e+001
1.813183e+003,2.871458e+001
1.814147e+003,3.002469e+001
1.815111e+003,3.093408e+001
1.816075e+003,3.043402e+001
1.817040e+003,3.000482e+001
1.818004e+003,3.164351e+001
1.818968e+003,3.516965e+001
1.819932e+003,3.649699e+001
1.820897e+003,3.352242e+001
1.821861e+003,3.124834e+001
1.822825e+003,3.143484e+001
1.823789e+003,3.126334e+001
1.824754e+003,3.025520e+001
1.825718e+003,2.973018e+001
1.826682e+003,2.975699e+001
1.827646e+003,2.981554e+001
1.828610e+003,2.939607e+001
1.829575e+003,2.888461e+001
1.830539e+003,3.016621e+001
1.831503e+003,3.448608e+001
1.832467e+003,3.786627e+001
1.833432e+003,3.635089e+001
1.834396e+003,3.246654e+001
1.835360e+003,2.955232e+001
1.836324e+003,2.823862e+001
1.837289e+003,2.883386e+001
1.838253e+003,3.051035e+001
1.839217e+003,3.208301e+001
1.840181e+003,3.348444e+001
1.841146e+003,3.384184e+001
1.842110e+003,3.238123e+001
1.843074e+003,3.061157e+001
1.844038e+003,3.105458e+001
1.845002e+003,3.345059e+001
1.845967e+003,3.369946e+001
1.846931e+003,2.972514e+001
1.847895e+003,2.797537e+001
1.848859e+003,2.811560e+001
1.849824e+003,2.885767e+001
1.850788e+003,3.241841e+001
1.851752e+003,3.522604e+001
1.852716e+003,3.370378e+001
1.853681e+003,3.085938e+001
1.854645e+003,3.094992e+001
1.855609e+003,3.365749e+001
1.856573e+003,3.544690e+001
1.857537e+003,3.456403e+001
1.858502e+003,3.326170e+001
1.859466e+003,3.485039e+001
1.860430e+003,3.816498e+001
1.861394e+003,3.915408e+001
1.862359e+003,3.768951e+001
1.863323e+003,3.570125e+001
1.864287e+003,3.314771e+001
1.865251e+003,3.157555e+001
1.866216e+003,3.210600e+001
1.867180e+003,3.387297e+001
1.868144e+003,3.614677e+001
1.869108e+003,3.764508e+001
1.870073e+003,3.714163e+001
1.871037e+003,3.535419e+001
1.872001e+003,3.433879e+001
1.872965e+003,3.445522e+001
1.873929e+003,3.451758e+001
1.874894e+003,3.299689e+001
1.875858e+003,3.196443e+001
1.876822e+003,3.334525e+001
1.877786e+003,3.504172e+001
1.878751e+003,3.535345e+001
1.879715e+003,3.511862e+001
1.880679e+003,3.533199e+001
1.881643e+003,3.589233e+001
1.882608e+003,3.658891e+001
1.883572e+003,3.723326e+001
1.884536e+003,3.699500e+001
1.885500e+003,3.504610e+001
1.886464e+003,3.204611e+001
1.887429e+003,2.940135e+001
1.888393e+003,2.770657e+001
1.889357e+003,2.768970e+001
1.890321e+003,2.917487e+001
1.891286e+003,3.082709e+001
1.892250e+003,3.235258e+001
1.893214e+003,3.320599e+001
1.894178e+003,3.377919e+001
1.895143e+003,3.426237e+001
1.896107e+003,3.426369e+001
1.897071e+003,3.362302e+001
1.898035e+003,3.135719e+001
1.899000e+003,2.726283e+001
1.899964e+003,2.632845e+001
1.900928e+003,3.267744e+001
1.901892e+003,3.736696e+001
1.902856e+003,3.526762e+001
1.903821e+003,3.266249e+001
1.904785e+003,3.239787e+001
1.905749e+003,3.262283e+001
1.906713e+003,3.238910e+001
1.907678e+003,3.236237e+001
1.908642e+003,3.335913e+001
1.909606e+003,3.485156e+001
1.910570e+003,3.519417e+001
1.911535e+003,3.385898e+001
1.912499e+003,3.239423e+001
1.913463e+003,3.189011e+001
1.914427e+003,3.151021e+001
1.915391e+003,3.088026e+001
1.916356e+003,3.068994e+001
1.917320e+003,3.116754e+001
1.918284e+003,3.252669e+001
1.919248e+003,3.368143e+001
1.920213e+003,3.336162e+001
1.921177e+003,3.280580e+001
1.922141e+003,3.298088e+001
1.923105e+003,3.401016e+001
1.924070e+003,3.666940e+001
1.925034e+003,3.973019e+001
1.925998e+003,3.968263e+001
1.926962e+003,3.648856e+001
1.927927e+003,3.270178e+001
1.928891e+003,2.683975e+001
1.929855e+003,2.382703e+001
1.930819e+003,2.567252e+001
1.931783e+003,2.845253e+001
1.932748e+003,3.179781e+001
1.933712e+003,3.459419e+001
1.934676e+003,3.578212e+001
1.935640e+003,3.545816e+001
1.936605e+003,3.314330e+001
1.937569e+003,2.931581e+001
1.938533e+003,2.657068e+001
1.939497e+003,2.672014e+001
1.940462e+003,2.842616e+001
1.941426e+003,2.969466e+001
1.942390e+003,3.047298e+001
1.943354e+003,3.124185e+001
1.944318e+003,3.148454e+001
1.945283e+003,3.123389e+001
1.946247e+003,3.123428e+001
1.947211e+003,3.084401e+001
1.948175e+003,2.985284e+001
1.949140e+003,2.951115e+001
1.950104e+003,2.991403e+001
1.951068e+003,3.027037e+001
1.952032e+003,3.035114e+001
1.952997e+003,3.052571e+001
1.953961e+003,3.125359e+001
1.954925e+003,3.260541e+001
1.955889e+003,3.290666e+001
1.956854e+003,3.177330e+001
1.957818e+003,3.062875e+001
1.958782e+003,2.965750e+001
1.959746e+003,2.921097e+001
1.960710e+003,2.799998e+001
1.961675e+003,2.690138e+001
1.962639e+003,2.822118e+001
1.963603e+003,3.029616e+001
1.964567e+003,2.948216e+001
1.965532e+003,2.639372e+001
1.966496e+003,2.566179e+001
1.967460e+003,2.884129e+001
1.968424e+003,3.160706e+001
1.969389e+003,3.121515e+001
1.970353e+003,2.988010e+001
1.971317e+003,2.982843e+001
1.972281e+003,2.972679e+001
1.973245e+003,2.651328e+001
1.974210e+003,2.254297e+001
1.975174e+003,2.355396e+001
1.976138e+003,2.917012e+001
1.977102e+003,3.404904e+001
1.978067e+003,3.574138e+001
1.979031e+003,3.552106e+001
1.979995e+003,3.471646e+001
1.980959e+003,3.331319e+001
1.981924e+003,3.109908e+001
1.982888e+003,2.854980e+001
1.983852e+003,2.704041e+001
1.984816e+003,2.630157e+001
1.985781e+003,2.578328e+001
1.986745e+003,2.596696e+001
1.987709e+003,2.653535e+001
1.988673e+003,2.659488e+001
1.989637e+003,2.720601e+001
1.990602e+003,2.967281e+001
1.991566e+003,3.222011e+001
1.992530e+003,3.284621e+001
1.993494e+003,3.237483e+001
1.994459e+003,3.188083e+001
1.995423e+003,3.067914e+001
1.996387e+003,2.978671e+001
1.997351e+003,2.905025e+001
1.998316e+003,2.819359e+001
1.999280e+003,2.768932e+001
2.000244e+003,2.780644e+001
2.001208e+003,2.896684e+001
2.002172e+003,3.024841e+001
2.003137e+003,3.002248e+001
2.004101e+003,2.894579e+001
2.005065e+003,2.933290e+001
2.006029e+003,3.138733e+001
2.006994e+003,3.255144e+001
2.007958e+003,3.129131e+001
2.008922e+003,2.922495e+001
2.009886e+003,2.784666e+001
2.010851e+003,2.747589e+001
2.011815e+003,2.828110e+001
2.012779e+003,2.924908e+001
2.013743e+003,2.889742e+001
2.014708e+003,2.757074e+001
2.015672e+003,2.688892e+001
2.016636e+003,2.705479e+001
2.017600e+003,2.622174e+001
2.018564e+003,2.360284e+001
2.019529e+003,2.182899e+001
2.020493e+003,2.375200e+001
2.021457e+003,2.760744e+001
2.022421e+003,2.925543e+001
2.023386e+003,2.886929e+001
2.024350e+003,2.920454e+001
2.025314e+003,3.033517e+001
2.026278e+003,3.173672e+001
2.027243e+003,3.356914e+001
2.028207e+003,3.493726e+001
2.029171e+003,3.535757e+001
2.030135e+003,3.509290e+001
2.031099e+003,3.424162e+001
2.032064e+003,3.280875e+001
2.033028e+003,3.046577e+001
2.033992e+003,2.716096e+001
2.034956e+003,2.565372e+001
2.035921e+003,2.768132e+001
2.036885e+003,2.999513e+001
2.037849e+003,3.342618e+001
2.038813e+003,3.598267e+001
2.039778e+003,3.478728e+001
2.040742e+003,3.217717e+001
2.041706e+003,2.946458e+001
2.042670e+003,2.747983e+001
2.043635e+003,2.678667e+001
2.044599e+003,2.687946e+001
2.045563e+003,2.730142e+001
2.046527e+003,2.799677e+001
2.047491e+003,2.784805e+001
2.048456e+003,2.629475e+001
2.049420e+003,2.642010e+001
2.050384e+003,3.035341e+001
2.051348e+003,3.266628e+001
2.052313e+003,2.970822e+001
2.053277e+003,2.653355e+001
2.054241e+003,2.816158e+001
2.055205e+003,3.168042e+001
2.056170e+003,3.215695e+001
2.057134e+003,2.956570e+001
2.058098e+003,2.679665e+001
2.059062e+003,2.521883e+001
2.060027e+003,2.446786e+001
2.060991e+003,2.408464e+001
2.061955e+003,2.407747e+001
2.062919e+003,2.433487e+001
2.063884e+003,2.471016e+001
2.064848e+003,2.609076e+001
2.065812e+003,2.802611e+001
2.066776e+003,2.813390e+001
2.067740e+003,2.678325e+001
2.068705e+003,2.701825e+001
2.069669e+003,2.908365e+001
2.070633e+003,3.028947e+001
2.071597e+003,2.932120e+001
2.072562e+003,2.701801e+001
2.073526e+003,2.449553e+001
2.074490e+003,2.362804e+001
2.075454e+003,2.728806e+001
2.076418e+003,3.318620e+001
2.077383e+003,3.332074e+001
2.078347e+003,2.789833e+001
2.079311e+003,2.409111e+001
2.080275e+003,2.387050e+001
2.081240e+003,2.548433e+001
2.082204e+003,2.762726e+001
2.083168e+003,2.962035e+001
2.084132e+003,3.099890e+001
2.085096e+003,3.122516e+001
2.086061e+003,3.031454e+001
2.087025e+003,2.898540e+001
2.087989e+003,2.793257e+001
2.088953e+003,2.712213e+001
2.089918e+003,2.760593e+001
2.090882e+003,3.020102e+001
2.091846e+003,3.000259e+001
2.092810e+003,2.542545e+001
2.093775e+003,2.160008e+001
2.094739e+003,1.996790e+001
2.095703e+003,1.915793e+001
2.096667e+003,1.813977e+001
2.097632e+003,1.784763e+001
2.098596e+003,2.064651e+001
2.099560e+003,2.573842e+001
2.100524e+003,2.720297e+001
2.101489e+003,2.311081e+001
2.102453e+003,2.112151e+001
2.103417e+003,2.358186e+001
2.104381e+003,2.520059e+001
2.105345e+003,2.619563e+001
2.106310e+003,2.595160e+001
2.107274e+003,2.287511e+001
2.108238e+003,2.010472e+001
2.109202e+003,1.948137e+001
2.110167e+003,2.012469e+001
2.111131e+003,2.111330e+001
2.112095e+003,2.189432e+001
2.113059e+003,2.213319e+001
2.114023e+003,2.301811e+001
2.114988e+003,2.414946e+001
2.115952e+003,2.365927e+001
2.116916e+003,2.243990e+001
2.117880e+003,2.105765e+001
2.118845e+003,1.944218e+001
2.119809e+003,1.794936e+001
2.120773e+003,1.775150e+001
2.121737e+003,1.928528e+001
2.122702e+003,2.128032e+001
2.123666e+003,2.251968e+001
2.124630e+003,2.270786e+001
2.125594e+003,2.197275e+001
2.126559e+003,2.052737e+001
2.127523e+003,1.902582e+001
2.128487e+003,1.822243e+001
2.129451e+003,1.756169e+001
2.130416e+003,1.529752e+001
2.131380e+003,1.367780e+001
2.132344e+003,1.523907e+001
2.133308e+003,1.800768e+001
2.134272e+003,1.996716e+001
2.135237e+003,2.055574e+001
2.136201e+003,1.963911e+001
2.137165e+003,1.785626e+001
2.138129e+003,1.643159e+001
2.139094e+003,1.593269e+001
2.140058e+003,1.597581e+001
2.141022e+003,1.559689e+001
2.141986e+003,1.543987e+001
2.142950e+003,1.788786e+001
2.143915e+003,1.995143e+001
2.144879e+003,1.691177e+001
2.145843e+003,1.178539e+001
2.146807e+003,9.288605e+000
2.147772e+003,9.754883e+000
2.148736e+003,1.192523e+001
2.149700e+003,1.456059e+001
2.150664e+003,1.613365e+001
2.151629e+003,1.619568e+001
2.152593e+003,1.589571e+001
2.153557e+003,1.632176e+001
2.154521e+003,1.727119e+001
2.155486e+003,1.841161e+001
2.156450e+003,1.883383e+001
2.157414e+003,1.688649e+001
2.158378e+003,1.425906e+001
2.159343e+003,1.474680e+001
2.160307e+003,1.726474e+001
2.161271e+003,1.713922e+001
2.162235e+003,1.385884e+001
2.163199e+003,1.126166e+001
2.164164e+003,1.122287e+001
2.165128e+003,1.202229e+001
2.166092e+003,1.221266e+001
2.167056e+003,1.280959e+001
2.168021e+003,1.576193e+001
2.168985e+003,1.855003e+001
2.169949e+003,1.627814e+001
2.170913e+003,1.152402e+001
2.171877e+003,1.077081e+001
2.172842e+003,1.343188e+001
2.173806e+003,1.369272e+001
2.174770e+003,1.081680e+001
2.175734e+003,1.032304e+001
2.176699e+003,1.442015e+001
2.177663e+003,1.756654e+001
2.178627e+003,1.502634e+001
2.179591e+003,1.055894e+001
2.180556e+003,8.873886e+000
2.181520e+003,8.923355e+000
2.182484e+003,9.643692e+000
2.183448e+003,1.091011e+001
2.184413e+003,1.135909e+001
2.185377e+003,1.116104e+001
2.186341e+003,1.170988e+001
2.187305e+003,1.302126e+001
2.188270e+003,1.410014e+001
2.189234e+003,1.469667e+001
2.190198e+003,1.473824e+001
2.191162e+003,1.359686e+001
2.192126e+003,1.155934e+001
2.193091e+003,9.812881e+000
2.194055e+003,8.536469e+000
2.195019e+003,7.880371e+000
2.195983e+003,7.854813e+000
2.196948e+003,6.903336e+000
2.197912e+003,5.636948e+000
2.198876e+003,7.714874e+000
2.199840e+003,1.283719e+001
2.200804e+003,1.712802e+001
2.201769e+003,1.880785e+001
2.202733e+003,1.716998e+001
2.203697e+003,1.195332e+001
2.204661e+003,6.546326e+000
2.205626e+003,5.073822e+000
2.206590e+003,6.189423e+000
2.207554e+003,7.455582e+000
2.208518e+003,8.103165e+000
2.209483e+003,6.725800e+000
2.210447e+003,4.347382e+000
2.211411e+003,3.938660e+000
2.212375e+003,5.467850e+000
2.213340e+003,6.533127e+000
2.214304e+003,6.489975e+000
2.215268e+003,6.769852e+000
2.216232e+003,7.921906e+000
2.217197e+003,8.535431e+000
2.218161e+003,7.661591e+000
2.219125e+003,5.913925e+000
2.220089e+003,3.247986e+000
2.221053e+003,1.316391e+000
2.222018e+003,3.556473e+000
2.222982e+003,7.617554e+000
2.223946e+003,8.631592e+000
2.224910e+003,7.506516e+000
2.225875e+003,8.349182e+000
2.226839e+003,1.152881e+001
2.227803e+003,1.382411e+001
2.228767e+003,1.350108e+001
2.229731e+003,1.202089e+001
2.230696e+003,1.090479e+001
2.231660e+003,9.299606e+000
2.232624e+003,5.364777e+000
2.233588e+003,1.584946e+000
2.234553e+003,1.703110e+000
2.235517e+003,4.036682e+000
2.236481e+003,5.612259e+000
2.237445e+003,5.932907e+000
2.238410e+003,5.427948e+000
2.239374e+003,4.969421e+000
2.240338e+003,6.336670e+000
2.241302e+003,9.635239e+000
2.242267e+003,1.104448e+001
2.243231e+003,7.671326e+000
2.244195e+003,4.382828e+000
2.245159e+003,6.542770e+000
2.246124e+003,1.037306e+001
2.247088e+003,1.221416e+001
2.248052e+003,1.234074e+001
2.249016e+003,1.094528e+001
2.249980e+003,9.011322e+000
2.250945e+003,7.847687e+000
2.251909e+003,7.539703e+000
2.252873e+003,6.998169e+000
2.253837e+003,5.850861e+000
2.254802e+003,5.551880e+000
2.255766e+003,7.186081e+000
2.256730e+003,8.289078e+000
2.257694e+003,5.751312e+000
2.258658e+003,3.326248e+000
2.259623e+003,4.773834e+000
2.260587e+003,6.849411e+000
2.261551e+003,6.425659e+000
2.262515e+003,5.049103e+000
2.263480e+003,4.697632e+000
2.264444e+003,5.431702e+000
2.265408e+003,6.579758e+000
2.266372e+003,7.535980e+000
2.267337e+003,8.013535e+000
2.268301e+003,8.095871e+000
2.269265e+003,7.986038e+000
2.270229e+003,9.262848e+000
2.271194e+003,1.019391e+001
2.272158e+003,6.507248e+000
2.273122e+003,3.195892e+000
2.274086e+003,4.690155e+000
2.275051e+003,7.251358e+000
2.276015e+003,8.308487e+000
2.276979e+003,8.981796e+000
2.277943e+003,1.089648e+001
2.278907e+003,1.300156e+001
2.279872e+003,1.239478e+001
2.280836e+003,8.644135e+000
2.281800e+003,5.720123e+000
2.282764e+003,4.732681e+000
2.283729e+003,5.271332e+000
2.284693e+003,9.257782e+000
2.285657e+003,1.276543e+001
2.286621e+003,1.374654e+001
2.287585e+003,1.285611e+001
2.288550e+003,9.605423e+000
2.289514e+003,7.042053e+000
2.290478e+003,8.237778e+000
2.291442e+003,1.134972e+001
2.292407e+003,1.344878e+001
2.293371e+003,1.412006e+001
2.294335e+003,1.233632e+001
2.295299e+003,7.057648e+000
2.296264e+003,4.828751e+000
2.297228e+003,7.268478e+000
2.298192e+003,9.889328e+000
2.299156e+003,1.360397e+001
2.300121e+003,1.590207e+001
2.301085e+003,1.454106e+001
2.302049e+003,1.283598e+001
2.303013e+003,1.324391e+001
2.303978e+003,1.431206e+001
2.304942e+003,1.413782e+001
2.305906e+003,1.319550e+001
2.306870e+003,1.293767e+001
2.307834e+003,1.332457e+001
2.308799e+003,1.394676e+001
2.309763e+003,1.513078e+001
2.310727e+003,1.756660e+001
2.311691e+003,2.101797e+001
2.312656e+003,2.168549e+001
2.313620e+003,1.884061e+001
2.314584e+003,1.683003e+001
2.315548e+003,1.736470e+001
2.316512e+003,1.805383e+001
2.317477e+003,1.759181e+001
2.318441e+003,1.711765e+001
2.319405e+003,1.715121e+001
2.320369e+003,1.791353e+001
2.321334e+003,2.047643e+001
2.322298e+003,2.370419e+001
2.323262e+003,2.617030e+001
2.324226e+003,2.886902e+001
2.325191e+003,3.292316e+001
2.326155e+003,3.723334e+001
2.327119e+003,3.870779e+001
2.328083e+003,3.700273e+001
2.329048e+003,3.442065e+001
2.330012e+003,3.247075e+001
2.330976e+003,3.085403e+001
2.331940e+003,2.831931e+001
2.332905e+003,2.702437e+001
2.333869e+003,3.210109e+001
2.334833e+003,3.790726e+001
2.335797e+003,3.829247e+001
2.336761e+003,3.662209e+001
2.337726e+003,3.484288e+001
2.338690e+003,3.334096e+001
2.339654e+003,3.350256e+001
2.340618e+003,3.512004e+001
2.341583e+003,3.700043e+001
2.342547e+003,3.912415e+001
2.343511e+003,4.216846e+001
2.344475e+003,4.600705e+001
2.345439e+003,4.902782e+001
2.346404e+003,5.041049e+001
2.347368e+003,5.104701e+001
2.348332e+003,5.153526e+001
2.349296e+003,5.237238e+001
2.350261e+003,5.434087e+001
2.351225e+003,5.622290e+001
2.352189e+003,5.509474e+001
2.353153e+003,5.403354e+001
2.354118e+003,5.751967e+001
2.355082e+003,6.329074e+001
2.356046e+003,6.733609e+001
2.357010e+003,7.017836e+001
2.357975e+003,7.086469e+001
2.358939e+003,6.803413e+001
2.359903e+003,6.821474e+001
2.360867e+003,7.156987e+001
2.361832e+003,7.373145e+001
2.362796e+003,7.517679e+001
2.363760e+003,7.636696e+001
2.364724e+003,7.752472e+001
2.365688e+003,7.984613e+001
2.366653e+003,8.317419e+001
2.367617e+003,8.579149e+001
2.368581e+003,8.652193e+001
2.369545e+003,8.711630e+001
2.370510e+003,9.138422e+001
2.371474e+003,9.813327e+001
2.372438e+003,1.011186e+002
2.373402e+003,1.009248e+002
2.374366e+003,1.011639e+002
2.375331e+003,1.018612e+002
2.376295e+003,1.010336e+002
2.377259e+003,9.929469e+001
2.378223e+003,1.011056e+002
2.379188e+003,1.068776e+002
2.380152e+003,1.115307e+002
2.381116e+003,1.125801e+002
2.382080e+003,1.117883e+002
2.383045e+003,1.096174e+002
2.384009e+003,1.078369e+002
2.384973e+003,1.085000e+002
2.385937e+003,1.102993e+002
2.386902e+003,1.132752e+002
2.387866e+003,1.164349e+002
2.388830e+003,1.172550e+002
2.389794e+003,1.167791e+002
2.390759e+003,1.169929e+002
2.391723e+003,1.178591e+002
2.392687e+003,1.194584e+002
2.393651e+003,1.221029e+002
2.394615e+003,1.239446e+002
2.395580e+003,1.238812e+002
2.396544e+003,1.237533e+002
2.397508e+003,1.237189e+002
2.398472e+003,1.235083e+002
2.399437e+003,1.237376e+002
2.400401e+003,1.239317e+002
2.401365e+003,1.236066e+002
2.402329e+003,1.228237e+002
2.403293e+003,1.209149e+002
2.404258e+003,1.198320e+002
2.405222e+003,1.225419e+002
2.406186e+003,1.269980e+002
2.407150e+003,1.276337e+002
2.408115e+003,1.252934e+002
2.409079e+003,1.271909e+002
2.410043e+003,1.329415e+002
2.411007e+003,1.341441e+002
2.411972e+003,1.313376e+002
2.412936e+003,1.322198e+002
2.413900e+003,1.367519e+002
2.414864e+003,1.387556e+002
2.415829e+003,1.371566e+002
2.416793e+003,1.346589e+002
2.417757e+003,1.324562e+002
2.418721e+003,1.317187e+002
2.419686e+003,1.338174e+002
2.420650e+003,1.370623e+002
2.421614e+003,1.403793e+002
2.422578e+003,1.427238e+002
2.423542e+003,1.417202e+002
2.424507e+003,1.401641e+002
2.425471e+003,1.426185e+002
2.426435e+003,1.462342e+002
2.427399e+003,1.462247e+002
2.428364e+003,1.431008e+002
2.429328e+003,1.394051e+002
2.430292e+003,1.364222e+002
2.431256e+003,1.352356e+002
2.432220e+003,1.360264e+002
2.433185e+003,1.366332e+002
2.434149e+003,1.348738e+002
2.435113e+003,1.351515e+002
2.436077e+003,1.405935e+002
2.437042e+003,1.428533e+002
2.438006e+003,1.388684e+002
2.438970e+003,1.346268e+002
2.439934e+003,1.325672e+002
2.440899e+003,1.318160e+002
2.441863e+003,1.321148e+002
2.442827e+003,1.326818e+002
2.443791e+003,1.316876e+002
2.444756e+003,1.297071e+002
2.445720e+003,1.297855e+002
2.446684e+003,1.312950e+002
2.447648e+003,1.308470e+002
2.448613e+003,1.290129e+002
2.449577e+003,1.275143e+002
2.450541e+003,1.263747e+002
2.451505e+003,1.254375e+002
2.452469e+003,1.243895e+002
2.453434e+003,1.212565e+002
2.454398e+003,1.155221e+002
2.455362e+003,1.110248e+002
2.456326e+003,1.109335e+002
2.457291e+003,1.119352e+002
2.458255e+003,1.100023e+002
2.459219e+003,1.093826e+002
2.460183e+003,1.139174e+002
2.461147e+003,1.166497e+002
2.462112e+003,1.127355e+002
2.463076e+003,1.092206e+002
2.464040e+003,1.123161e+002
2.465004e+003,1.159022e+002
2.465969e+003,1.126888e+002
2.466933e+003,1.069460e+002
2.467897e+003,1.057293e+002
2.468861e+003,1.075614e+002
2.469826e+003,1.064771e+002
2.470790e+003,1.022011e+002
2.471754e+003,1.002148e+002
2.472718e+003,1.011065e+002
2.473683e+003,1.020865e+002
2.474647e+003,1.020299e+002
2.475611e+003,1.012733e+002
2.476575e+003,1.005732e+002
2.477540e+003,1.004932e+002
2.478504e+003,1.008427e+002
2.479468e+003,1.001006e+002
2.480432e+003,9.733195e+001
2.481396e+003,9.442569e+001
2.482361e+003,9.344881e+001
2.483325e+003,9.387605e+001
2.484289e+003,9.438126e+001
2.485253e+003,9.489640e+001
2.486218e+003,9.672279e+001
2.487182e+003,9.791348e+001
2.488146e+003,9.613196e+001
2.489110e+003,9.329668e+001
2.490074e+003,9.192178e+001
2.491039e+003,9.206113e+001
2.492003e+003,9.241636e+001
2.492967e+003,9.194682e+001
2.493931e+003,9.125410e+001
2.494896e+003,9.141433e+001
2.495860e+003,9.087238e+001
2.496824e+003,8.930948e+001
2.497788e+003,8.891718e+001
2.498753e+003,8.964729e+001
2.499717e+003,9.065259e+001
2.500681e+003,9.205556e+001
2.501645e+003,9.228646e+001
2.502610e+003,9.034470e+001
2.503574e+003,8.735469e+001
2.504538e+003,8.454063e+001
2.505502e+003,8.315402e+001
2.506467e+003,8.434827e+001
2.507431e+003,8.605517e+001
2.508395e+003,8.622553e+001
2.509359e+003,8.584321e+001
2.510323e+003,8.582194e+001
2.511288e+003,8.583012e+001
2.512252e+003,8.537830e+001
2.513216e+003,8.466888e+001
2.514180e+003,8.401822e+001
2.515145e+003,8.354807e+001
2.516109e+003,8.353768e+001
2.517073e+003,8.383949e+001
2.518037e+003,8.250138e+001
2.519001e+003,7.763769e+001
2.519966e+003,7.776296e+001
2.520930e+003,8.581358e+001
2.521894e+003,9.030898e+001
2.522858e+003,8.961916e+001
2.523823e+003,8.849921e+001
2.524787e+003,8.802876e+001
2.525751e+003,8.749024e+001
2.526715e+003,8.660451e+001
2.527680e+003,8.622545e+001
2.528644e+003,8.716712e+001
2.529608e+003,8.838317e+001
2.530572e+003,8.796816e+001
2.531537e+003,8.654773e+001
2.532501e+003,8.565766e+001
2.533465e+003,8.504742e+001
2.534429e+003,8.381155e+001
2.535394e+003,8.342422e+001
2.536358e+003,8.674901e+001
2.537322e+003,9.012332e+001
2.538286e+003,8.758288e+001
2.539250e+003,8.175689e+001
2.540215e+003,7.947635e+001
2.541179e+003,8.086849e+001
2.542143e+003,8.177451e+001
2.543107e+003,8.277385e+001
2.544072e+003,8.392451e+001
2.545036e+003,8.458536e+001
2.546000e+003,8.433086e+001
2.546964e+003,8.274931e+001
2.547928e+003,8.272250e+001
2.548893e+003,8.484896e+001
2.549857e+003,8.582082e+001
2.550821e+003,8.466750e+001
2.551785e+003,8.396288e+001
2.552750e+003,8.521008e+001
2.553714e+003,8.594834e+001
2.554678e+003,8.382727e+001
2.555642e+003,8.134153e+001
2.556607e+003,7.987492e+001
2.557571e+003,7.909341e+001
2.558535e+003,8.002842e+001
2.559499e+003,8.070945e+001
2.560464e+003,8.005559e+001
2.561428e+003,7.897836e+001
2.562392e+003,7.708049e+001
2.563356e+003,7.482748e+001
2.564321e+003,7.358369e+001
2.565285e+003,7.351305e+001
2.566249e+003,7.445850e+001
2.567213e+003,7.591327e+001
2.568177e+003,7.558651e+001
2.569142e+003,7.352371e+001
2.570106e+003,7.268462e+001
2.571070e+003,7.336491e+001
2.572034e+003,7.202973e+001
2.572999e+003,6.891755e+001
2.573963e+003,6.824877e+001
2.574927e+003,7.019469e+001
2.575891e+003,7.169171e+001
2.576855e+003,7.123896e+001
2.577820e+003,6.893901e+001
2.578784e+003,6.527448e+001
2.579748e+003,6.286343e+001
2.580712e+003,6.376766e+001
2.581677e+003,6.493024e+001
2.582641e+003,6.483241e+001
2.583605e+003,6.318897e+001
2.584569e+003,5.845991e+001
2.585534e+003,5.518443e+001
2.586498e+003,5.657464e+001
2.587462e+003,5.965940e+001
2.588426e+003,6.156318e+001
2.589391e+003,6.173814e+001
2.590355e+003,5.916222e+001
2.591319e+003,5.536466e+001
2.592283e+003,5.539996e+001
2.593248e+003,5.760339e+001
2.594212e+003,5.623122e+001
2.595176e+003,5.328185e+001
2.596140e+003,5.440089e+001
2.597104e+003,5.747572e+001
2.598069e+003,5.643474e+001
2.599033e+003,5.231059e+001
2.599997e+003,5.087035e+001
2.600961e+003,5.288255e+001
2.601926e+003,5.363130e+001
2.602890e+003,5.139755e+001
2.603854e+003,5.105291e+001
2.604818e+003,5.418967e+001
2.605782e+003,5.488985e+001
2.606747e+003,5.267482e+001
2.607711e+003,5.093762e+001
2.608675e+003,5.027118e+001
2.609639e+003,5.004818e+001
2.610604e+003,5.011758e+001
2.611568e+003,5.057063e+001
2.612532e+003,5.132364e+001
2.613496e+003,5.152216e+001
2.614461e+003,4.994073e+001
2.615425e+003,4.847533e+001
2.616389e+003,5.068566e+001
2.617353e+003,5.227361e+001
2.618318e+003,4.855914e+001
2.619282e+003,4.468301e+001
2.620246e+003,4.554290e+001
2.621210e+003,4.846195e+001
2.622175e+003,4.966706e+001
2.623139e+003,4.994622e+001
2.624103e+003,5.146911e+001
2.625067e+003,5.212121e+001
2.626031e+003,4.801472e+001
2.626996e+003,4.183040e+001
2.627960e+003,4.154349e+001
2.628924e+003,4.513680e+001
2.629888e+003,4.463188e+001
2.630853e+003,4.139585e+001
2.631817e+003,4.221578e+001
2.632781e+003,4.701209e+001
2.633745e+003,4.990103e+001
2.634709e+003,4.947958e+001
2.635674e+003,4.893237e+001
2.636638e+003,4.923079e+001
2.637602e+003,4.930479e+001
2.638566e+003,5.035397e+001
2.639531e+003,4.996608e+001
2.640495e+003,4.458827e+001
2.641459e+003,4.025947e+001
2.642423e+003,3.745515e+001
2.643388e+003,3.715775e+001
2.644352e+003,3.968169e+001
2.645316e+003,4.074404e+001
2.646280e+003,3.873785e+001
2.647245e+003,3.578665e+001
2.648209e+003,3.396213e+001
2.649173e+003,3.366817e+001
2.650137e+003,3.426529e+001
2.651102e+003,3.539993e+001
2.652066e+003,3.658176e+001
2.653030e+003,3.656007e+001
2.653994e+003,3.499766e+001
2.654958e+003,3.470609e+001
2.655923e+003,3.917090e+001
2.656887e+003,4.364399e+001
2.657851e+003,4.244012e+001
2.658815e+003,3.968090e+001
2.659780e+003,4.079469e+001
2.660744e+003,4.286874e+001
2.661708e+003,3.991248e+001
2.662672e+003,3.410886e+001
2.663636e+003,3.203504e+001
2.664601e+003,3.252332e+001
2.665565e+003,3.221269e+001
2.666529e+003,3.180267e+001
2.667493e+003,3.378369e+001
2.668458e+003,3.650574e+001
2.669422e+003,3.536497e+001
2.670386e+003,3.135938e+001
2.671350e+003,3.015051e+001
2.672315e+003,3.259670e+001
2.673279e+003,3.311256e+001
2.674243e+003,3.006221e+001
2.675207e+003,2.754633e+001
2.676172e+003,2.562711e+001
2.677136e+003,2.536124e+001
2.678100e+003,2.719946e+001
2.679064e+003,2.876420e+001
2.680029e+003,2.903846e+001
2.680993e+003,2.860896e+001
2.681957e+003,2.820696e+001
2.682921e+003,2.759177e+001
2.683885e+003,2.619690e+001
2.684850e+003,2.471796e+001
2.685814e+003,2.449570e+001
2.686778e+003,2.585589e+001
2.687742e+003,2.933712e+001
2.688707e+003,3.213228e+001
2.689671e+003,3.246813e+001
2.690635e+003,3.114026e+001
2.691599e+003,2.865923e+001
2.692563e+003,2.656414e+001
2.693528e+003,2.553518e+001
2.694492e+003,2.537272e+001
2.695456e+003,2.582692e+001
2.696420e+003,2.626836e+001
2.697385e+003,2.611366e+001
2.698349e+003,2.556820e+001
2.699313e+003,2.536652e+001
2.700277e+003,2.491299e+001
2.701242e+003,2.192557e+001
2.702206e+003,1.875401e+001
2.703170e+003,1.801125e+001
2.704134e+003,1.839402e+001
2.705099e+003,1.938675e+001
2.706063e+003,2.076966e+001
2.707027e+003,2.206329e+001
2.707991e+003,2.276447e+001
2.708956e+003,2.157080e+001
2.709920e+003,1.902237e+001
2.710884e+003,1.894334e+001
2.711848e+003,2.065771e+001
2.712813e+003,2.089146e+001
2.713777e+003,2.103054e+001
2.714741e+003,2.331484e+001
2.715705e+003,2.486738e+001
2.716669e+003,2.249774e+001
2.717634e+003,1.837783e+001
2.718598e+003,1.624039e+001
2.719562e+003,1.685767e+001
2.720526e+003,1.800845e+001
2.721490e+003,1.771191e+001
2.722455e+003,1.542242e+001
2.723419e+003,1.227445e+001
2.724383e+003,1.234972e+001
2.725347e+003,1.518565e+001
2.726312e+003,1.597575e+001
2.727276e+003,1.434529e+001
2.728240e+003,1.497427e+001
2.729204e+003,1.862459e+001
2.730169e+003,1.968975e+001
2.731133e+003,1.598276e+001
2.732097e+003,1.362131e+001
2.733061e+003,1.518642e+001
2.734026e+003,1.547649e+001
2.734990e+003,1.623083e+001
2.735954e+003,1.620044e+001
2.736918e+003,1.344957e+001
2.737883e+003,1.292298e+001
2.738847e+003,1.501356e+001
2.739811e+003,1.656145e+001
2.740775e+003,1.672891e+001
2.741740e+003,1.501427e+001
2.742704e+003,1.199352e+001
2.743668e+003,1.056783e+001
2.744632e+003,1.174204e+001
2.745596e+003,1.316779e+001
2.746561e+003,1.287987e+001
2.747525e+003,1.154916e+001
2.748489e+003,1.061002e+001
2.749453e+003,1.055019e+001
2.750417e+003,1.216768e+001
2.751382e+003,1.326060e+001
2.752346e+003,1.212835e+001
2.753310e+003,1.142648e+001
2.754274e+003,1.303582e+001
2.755239e+003,1.388815e+001
2.756203e+003,1.085372e+001
2.757167e+003,7.758072e+000
2.758131e+003,8.827293e+000
2.759096e+003,9.566856e+000
2.760060e+003,5.923309e+000
2.761024e+003,3.276802e+000
2.761988e+003,6.087975e+000
2.762953e+003,8.919144e+000
2.763917e+003,8.500107e+000
2.764881e+003,6.872162e+000
2.765845e+003,5.701210e+000
2.766810e+003,6.063148e+000
2.767774e+003,1.093140e+001
2.768738e+003,1.635792e+001
2.769702e+003,1.456930e+001
2.770667e+003,1.067994e+001
2.771631e+003,8.211281e+000
2.772595e+003,6.637848e+000
2.773559e+003,8.447647e+000
2.774523e+003,1.113044e+001
2.775488e+003,1.206552e+001
2.776452e+003,1.246707e+001
2.777416e+003,1.118342e+001
2.778380e+003,7.294823e+000
2.779344e+003,5.839653e+000
2.780309e+003,7.979782e+000
2.781273e+003,1.008517e+001
2.782237e+003,1.307028e+001
2.783201e+003,1.581313e+001
2.784166e+003,1.584267e+001
2.785130e+003,1.413671e+001
2.786094e+003,1.232044e+001
2.787058e+003,1.143309e+001
2.788023e+003,1.161403e+001
2.788987e+003,1.115234e+001
2.789951e+003,1.008819e+001
2.790915e+003,1.119145e+001
2.791880e+003,1.412537e+001
2.792844e+003,1.582922e+001
2.793808e+003,1.662141e+001
2.794772e+003,1.536352e+001
2.795737e+003,1.215486e+001
2.796701e+003,1.024342e+001
2.797665e+003,9.726059e+000
2.798629e+003,8.317780e+000
2.799594e+003,7.010536e+000
2.800558e+003,8.584206e+000
2.801522e+003,1.192151e+001
2.802486e+003,1.266695e+001
2.803450e+003,9.961647e+000
2.804415e+003,7.454308e+000
2.805379e+003,5.590813e+000
2.806343e+003,6.747559e+000
2.807307e+003,1.100407e+001
2.808271e+003,9.895668e+000
2.809236e+003,4.039185e+000
2.810200e+003,4.855476e+000
2.811164e+003,1.220140e+001
2.812128e+003,1.443885e+001
2.813093e+003,1.048521e+001
2.814057e+003,1.053531e+001
2.815021e+003,1.293129e+001
2.815985e+003,1.069588e+001
2.816950e+003,6.445152e+000
2.817914e+003,7.492943e+000
2.818878e+003,1.163873e+001
2.819842e+003,1.141090e+001
2.820807e+003,8.095886e+000
2.821771e+003,6.976959e+000
2.822735e+003,7.689766e+000
2.823699e+003,7.599808e+000
2.824664e+003,7.240486e+000
2.825628e+003,7.495636e+000
2.826592e+003,8.889130e+000
2.827556e+003,1.029332e+001
2.828521e+003,1.056174e+001
2.829485e+003,8.982048e+000
2.830449e+003,6.773300e+000
2.831413e+003,6.069489e+000
2.832377e+003,6.539566e+000
2.833342e+003,8.491791e+000
2.834306e+003,1.143821e+001
2.835270e+003,1.100324e+001
2.836234e+003,5.706261e+000
2.837198e+003,4.005539e+000
2.838163e+003,8.224457e+000
2.839127e+003,1.074934e+001
2.840091e+003,1.150954e+001
2.841055e+003,1.070081e+001
2.842020e+003,8.306946e+000
2.842984e+003,7.196014e+000
2.843948e+003,7.773109e+000
2.844912e+003,8.349442e+000
2.845877e+003,8.487717e+000
2.846841e+003,8.124710e+000
2.847805e+003,7.099808e+000
2.848769e+003,7.131714e+000
2.849734e+003,9.009659e+000
2.850698e+003,8.939407e+000
2.851662e+003,6.685875e+000
2.852626e+003,5.004082e+000
2.853591e+003,4.678177e+000
2.854555e+003,7.032417e+000
2.855519e+003,1.086521e+001
2.856483e+003,1.127291e+001
2.857448e+003,7.746735e+000
2.858412e+003,5.900902e+000
2.859376e+003,8.077499e+000
2.860340e+003,1.006055e+001
2.861304e+003,1.127254e+001
2.862269e+003,1.103992e+001
2.863233e+003,8.604095e+000
2.864197e+003,7.213654e+000
2.865161e+003,7.834602e+000
2.866125e+003,7.615906e+000
2.867090e+003,5.730919e+000
2.868054e+003,3.866966e+000
2.869018e+003,2.557556e+000
2.869982e+003,1.880753e+000
2.870947e+003,2.986862e+000
2.871911e+003,4.367348e+000
2.872875e+003,4.269119e+000
2.873839e+003,5.199547e+000
2.874804e+003,7.516739e+000
2.875768e+003,7.610245e+000
2.876732e+003,5.690048e+000
2.877696e+003,4.532715e+000
2.878661e+003,4.465439e+000
2.879625e+003,4.283218e+000
2.880589e+003,3.758530e+000
2.881553e+003,4.027275e+000
2.882518e+003,5.683754e+000
2.883482e+003,6.970337e+000
2.884446e+003,7.537964e+000
2.885410e+003,9.215523e+000
2.886375e+003,1.180748e+001
2.887339e+003,1.209261e+001
2.888303e+003,1.066309e+001
2.889267e+003,1.157713e+001
2.890231e+003,1.457523e+001
2.891196e+003,1.575199e+001
2.892160e+003,1.465403e+001
2.893124e+003,1.498463e+001
2.894088e+003,1.743343e+001
2.895052e+003,1.953782e+001
2.896017e+003,2.133224e+001
2.896981e+003,2.227942e+001
2.897945e+003,2.234583e+001
2.898909e+003,2.077068e+001
2.899874e+003,1.851542e+001
2.900838e+003,1.863452e+001
2.901802e+003,2.089759e+001
2.902766e+003,2.275743e+001
2.903731e+003,2.397376e+001
2.904695e+003,2.673557e+001
2.905659e+003,3.117142e+001
2.906623e+003,3.215871e+001
2.907588e+003,2.998166e+001
2.908552e+003,2.932479e+001
2.909516e+003,3.006509e+001
2.910480e+003,3.127789e+001
2.911445e+003,3.280923e+001
2.912409e+003,3.526032e+001
2.913373e+003,3.784025e+001
2.914337e+003,3.788960e+001
2.915302e+003,3.588461e+001
2.916266e+003,3.541554e+001
2.917230e+003,3.648356e+001
2.918194e+003,3.975108e+001
2.919158e+003,4.437267e+001
2.920123e+003,4.651694e+001
2.921087e+003,4.700366e+001
2.922051e+003,4.763391e+001
2.923015e+003,4.846073e+001
2.923979e+003,4.880106e+001
2.924944e+003,4.925523e+001
2.925908e+003,5.167882e+001
2.926872e+003,5.496944e+001
2.927836e+003,5.540207e+001
2.928801e+003,5.393316e+001
2.929765e+003,5.450450e+001
2.930729e+003,5.656612e+001
2.931693e+003,6.002993e+001
2.932658e+003,6.324525e+001
2.933622e+003,6.377962e+001
2.934586e+003,6.275535e+001
2.935550e+003,6.091155e+001
2.936515e+003,5.998508e+001
2.937479e+003,6.269268e+001
2.938443e+003,6.702914e+001
2.939407e+003,6.870639e+001
2.940372e+003,6.839626e+001
2.941336e+003,6.599136e+001
2.942300e+003,6.409628e+001
2.943264e+003,6.641795e+001
2.944229e+003,7.042878e+001
2.945193e+003,7.473495e+001
2.946157e+003,7.798544e+001
2.947121e+003,7.922582e+001
2.948085e+003,7.866880e+001
2.949050e+003,7.624138e+001
2.950014e+003,7.396758e+001
2.950978e+003,7.538648e+001
2.951942e+003,7.803053e+001
2.952906e+003,7.894760e+001
2.953871e+003,8.016554e+001
2.954835e+003,8.476756e+001
2.955799e+003,8.760503e+001
2.956763e+003,8.539944e+001
2.957728e+003,8.280209e+001
2.958692e+003,8.268382e+001
2.959656e+003,8.438066e+001
2.960620e+003,8.758919e+001
2.961585e+003,9.012833e+001
2.962549e+003,8.913336e+001
2.963513e+003,8.799347e+001
2.964477e+003,8.847849e+001
2.965442e+003,8.926146e+001
2.966406e+003,8.991264e+001
2.967370e+003,9.105997e+001
2.968334e+003,9.294459e+001
2.969299e+003,9.332632e+001
2.970263e+003,9.131593e+001
2.971227e+003,9.123392e+001
2.972191e+003,9.622181e+001
2.973156e+003,9.998360e+001
2.974120e+003,9.849847e+001
2.975084e+003,9.713931e+001
2.976048e+003,9.608096e+001
2.977012e+003,9.738511e+001
2.977977e+003,1.012786e+002
2.978941e+003,1.031824e+002
2.979905e+003,1.024621e+002
2.980869e+003,1.035280e+002
2.981833e+003,1.074002e+002
2.982798e+003,1.087110e+002
2.983762e+003,1.050203e+002
2.984726e+003,1.030968e+002
2.985690e+003,1.035935e+002
2.986655e+003,1.047207e+002
2.987619e+003,1.063483e+002
2.988583e+003,1.075081e+002
2.989547e+003,1.082816e+002
2.990512e+003,1.097725e+002
2.991476e+003,1.115836e+002
2.992440e+003,1.115948e+002
2.993404e+003,1.098643e+002
2.994369e+003,1.096273e+002
2.995333e+003,1.108912e+002
2.996297e+003,1.120651e+002
2.997261e+003,1.131774e+002
2.998226e+003,1.145707e+002
2.999190e+003,1.159280e+002
3.000154e+003,1.163809e+002
3.001118e+003,1.163616e+002
3.002083e+003,1.165183e+002
3.003047e+003,1.170835e+002
3.004011e+003,1.184822e+002
3.004975e+003,1.199984e+002
3.005939e+003,1.195648e+002
3.006904e+003,1.185362e+002
3.007868e+003,1.211536e+002
3.008832e+003,1.250080e+002
3.009796e+003,1.271165e+002
3.010760e+003,1.279940e+002
3.011725e+003,1.272257e+002
3.012689e+003,1.269773e+002
3.013653e+003,1.292058e+002
3.014617e+003,1.317540e+002
3.015582e+003,1.324932e+002
3.016546e+003,1.320641e+002
3.017510e+003,1.307506e+002
3.018474e+003,1.297551e+002
3.019439e+003,1.307953e+002
3.020403e+003,1.316845e+002
3.021367e+003,1.309472e+002
3.022331e+003,1.299596e+002
3.023296e+003,1.287270e+002
3.024260e+003,1.304488e+002
3.025224e+003,1.364746e+002
3.026188e+003,1.417849e+002
3.027153e+003,1.432364e+002
3.028117e+003,1.439141e+002
3.029081e+003,1.457227e+002
3.030045e+003,1.467084e+002
3.031010e+003,1.463215e+002
3.031974e+003,1.456697e+002
3.032938e+003,1.448753e+002
3.033902e+003,1.463973e+002
3.034866e+003,1.501676e+002
3.035831e+003,1.531512e+002
3.036795e+003,1.544621e+002
3.037759e+003,1.545120e+002
3.038723e+003,1.532476e+002
3.039688e+003,1.542807e+002
3.040652e+003,1.583510e+002
3.041616e+003,1.585494e+002
3.042580e+003,1.558238e+002
3.043544e+003,1.562823e+002
3.044509e+003,1.591028e+002
3.045473e+003,1.610513e+002
3.046437e+003,1.620653e+002
3.047401e+003,1.629658e+002
3.048366e+003,1.641623e+002
3.049330e+003,1.667178e+002
3.050294e+003,1.697051e+002
3.051258e+003,1.691638e+002
3.052223e+003,1.666583e+002
3.053187e+003,1.647765e+002
3.054151e+003,1.643368e+002
3.055115e+003,1.676033e+002
3.056080e+003,1.713161e+002
3.057044e+003,1.722083e+002
3.058008e+003,1.720415e+002
3.058972e+003,1.722596e+002
3.059937e+003,1.729313e+002
3.060901e+003,1.743768e+002
3.061865e+003,1.755048e+002
3.062829e+003,1.742828e+002
3.063793e+003,1.735632e+002
3.064758e+003,1.760516e+002
3.065722e+003,1.774408e+002
3.066686e+003,1.760406e+002
3.067650e+003,1.762155e+002
3.068615e+003,1.794936e+002
3.069579e+003,1.815812e+002
3.070543e+003,1.803472e+002
3.071507e+003,1.792374e+002
3.072471e+003,1.796944e+002
3.073436e+003,1.815375e+002
3.074400e+003,1.855490e+002
3.075364e+003,1.872271e+002
3.076328e+003,1.864260e+002
3.077293e+003,1.861038e+002
3.078257e+003,1.868995e+002
3.079221e+003,1.900054e+002
3.080185e+003,1.943522e+002
3.081150e+003,1.948719e+002
3.082114e+003,1.913083e+002
3.083078e+003,1.902418e+002
3.084042e+003,1.915051e+002
3.085007e+003,1.927846e+002
3.085971e+003,1.939199e+002
3.086935e+003,1.944541e+002
3.087899e+003,1.944886e+002
3.088864e+003,1.940359e+002
3.089828e+003,1.933762e+002
3.090792e+003,1.925478e+002
3.091756e+003,1.923364e+002
3.092720e+003,1.939524e+002
3.093685e+003,1.961064e+002
3.094649e+003,1.965322e+002
3.095613e+003,1.963542e+002
3.096577e+003,1.964330e+002
3.097542e+003,1.969521e+002
3.098506e+003,1.991926e+002
3.099470e+003,1.994116e+002
3.100434e+003,1.957489e+002
3.101398e+003,1.947363e+002
3.102363e+003,1.995444e+002
3.103327e+003,2.035887e+002
3.104291e+003,2.026097e+002
3.105255e+003,2.015006e+002
3.106220e+003,2.031427e+002
3.107184e+003,2.033265e+002
3.108148e+003,2.014386e+002
3.109112e+003,2.012662e+002
3.110077e+003,2.029991e+002
3.111041e+003,2.044223e+002
3.112005e+003,2.054615e+002
3.112969e+003,2.080486e+002
3.113934e+003,2.121220e+002
3.114898e+003,2.147822e+002
3.115862e+003,2.158892e+002
3.116826e+003,2.140707e+002
3.117791e+003,2.104824e+002
3.118755e+003,2.104173e+002
3.119719e+003,2.128988e+002
3.120683e+003,2.174579e+002
3.121647e+003,2.218394e+002
3.122612e+003,2.227104e+002
3.123576e+003,2.220963e+002
3.124540e+003,2.218897e+002
3.125504e+003,2.218652e+002
3.126469e+003,2.217260e+002
3.127433e+003,2.215322e+002
3.128397e+003,2.208082e+002
3.129361e+003,2.208577e+002
3.130325e+003,2.238125e+002
3.131290e+003,2.253451e+002
3.132254e+003,2.240475e+002
3.133218e+003,2.223123e+002
3.134182e+003,2.212153e+002
3.135147e+003,2.221400e+002
3.136111e+003,2.257326e+002
3.137075e+003,2.276508e+002
3.138039e+003,2.246225e+002
3.139004e+003,2.247954e+002
3.139968e+003,2.287925e+002
3.140932e+003,2.312348e+002
3.141896e+003,2.321821e+002
3.142861e+003,2.339718e+002
3.143825e+003,2.364664e+002
3.144789e+003,2.387621e+002
3.145753e+003,2.401506e+002
3.146718e+003,2.385590e+002
3.147682e+003,2.358150e+002
3.148646e+003,2.395267e+002
3.149610e+003,2.462381e+002
3.150574e+003,2.462357e+002
3.151539e+003,2.434535e+002
3.152503e+003,2.411242e+002
3.153467e+003,2.406083e+002
3.154431e+003,2.432677e+002
3.155396e+003,2.465329e+002
3.156360e+003,2.488236e+002
3.157324e+003,2.496603e+002
3.158288e+003,2.483843e+002
3.159252e+003,2.471656e+002
3.160217e+003,2.475713e+002
3.161181e+003,2.485678e+002
3.162145e+003,2.502085e+002
3.163109e+003,2.509482e+002
3.164074e+003,2.507089e+002
3.165038e+003,2.531057e+002
3.166002e+003,2.577695e+002
3.166966e+003,2.585923e+002
3.167931e+003,2.547697e+002
3.168895e+003,2.539657e+002
3.169859e+003,2.566545e+002
3.170823e+003,2.580930e+002
3.171788e+003,2.584549e+002
3.172752e+003,2.582408e+002
3.173716e+003,2.580997e+002
3.174680e+003,2.594447e+002
3.175645e+003,2.613948e+002
3.176609e+003,2.630809e+002
3.177573e+003,2.637314e+002
3.178537e+003,2.622615e+002
3.179501e+003,2.610976e+002
3.180466e+003,2.642109e+002
3.181430e+003,2.673712e+002
3.182394e+003,2.652043e+002
3.183358e+003,2.636859e+002
3.184323e+003,2.664078e+002
3.185287e+003,2.673202e+002
3.186251e+003,2.650245e+002
3.187215e+003,2.623282e+002
3.188179e+003,2.605956e+002
3.189144e+003,2.621785e+002
3.190108e+003,2.679738e+002
3.191072e+003,2.713995e+002
3.192036e+003,2.711122e+002
3.193001e+003,2.716620e+002
3.193965e+003,2.728596e+002
3.194929e+003,2.730008e+002
3.195893e+003,2.727520e+002
3.196858e+003,2.742723e+002
3.197822e+003,2.763824e+002
3.198786e+003,2.765688e+002
3.199750e+003,2.754747e+002
3.200715e+003,2.736608e+002
3.201679e+003,2.726662e+002
3.202643e+003,2.773236e+002
3.203607e+003,2.814897e+002
3.204572e+003,2.772016e+002
3.205536e+003,2.729704e+002
3.206500e+003,2.725387e+002
3.207464e+003,2.740249e+002
3.208428e+003,2.767888e+002
3.209393e+003,2.781721e+002
3.210357e+003,2.772441e+002
3.211321e+003,2.775483e+002
3.212285e+003,2.811313e+002
3.213250e+003,2.819995e+002
3.214214e+003,2.789827e+002
3.215178e+003,2.800571e+002
3.216142e+003,2.840592e+002
3.217106e+003,2.840089e+002
3.218071e+003,2.814053e+002
3.219035e+003,2.804351e+002
3.219999e+003,2.814932e+002
3.220963e+003,2.845075e+002
3.221928e+003,2.872310e+002
3.222892e+003,2.846721e+002
3.223856e+003,2.812644e+002
3.224820e+003,2.853298e+002
3.225785e+003,2.909798e+002
3.226749e+003,2.954464e+002
3.227713e+003,2.961599e+002
3.228677e+003,2.916619e+002
3.229642e+003,2.879488e+002
3.230606e+003,2.874117e+002
3.231570e+003,2.890330e+002
3.232534e+003,2.923398e+002
3.233499e+003,2.945809e+002
3.234463e+003,2.942595e+002
3.235427e+003,2.953011e+002
3.236391e+003,2.975996e+002
3.237355e+003,2.982404e+002
3.238320e+003,2.975967e+002
3.239284e+003,2.964066e+002
3.240248e+003,2.957954e+002
3.241212e+003,2.988021e+002
3.242177e+003,3.024484e+002
3.243141e+003,3.020331e+002
3.244105e+003,3.002434e+002
3.245069e+003,3.029467e+002
3.246033e+003,3.058356e+002
3.246998e+003,3.025969e+002
3.247962e+003,3.012067e+002
3.248926e+003,3.062502e+002
3.249890e+003,3.099650e+002
3.250855e+003,3.100339e+002
3.251819e+003,3.084352e+002
3.252783e+003,3.063643e+002
3.253747e+003,3.071009e+002
3.254712e+003,3.125542e+002
3.255676e+003,3.144053e+002
3.256640e+003,3.121158e+002
3.257604e+003,3.129658e+002
3.258569e+003,3.161530e+002
3.259533e+003,3.201013e+002
3.260497e+003,3.228343e+002
3.261461e+003,3.196310e+002
3.262426e+003,3.153000e+002
3.263390e+003,3.161499e+002
3.264354e+003,3.191831e+002
3.265318e+003,3.202596e+002
3.266282e+003,3.208922e+002
3.267247e+003,3.225974e+002
3.268211e+003,3.246365e+002
3.269175e+003,3.273560e+002
3.270139e+003,3.280110e+002
3.271104e+003,3.261650e+002
3.272068e+003,3.260168e+002
3.273032e+003,3.285130e+002
3.273996e+003,3.316945e+002
3.274960e+003,3.347554e+002
3.275925e+003,3.343347e+002
3.276889e+003,3.305722e+002
3.277853e+003,3.317288e+002
3.278817e+003,3.355962e+002
3.279782e+003,3.357543e+002
3.280746e+003,3.346500e+002
3.281710e+003,3.363279e+002
3.282674e+003,3.387077e+002
3.283639e+003,3.398747e+002
3.284603e+003,3.405429e+002
3.285567e+003,3.414894e+002
3.286531e+003,3.414696e+002
3.287496e+003,3.370497e+002
3.288460e+003,3.360883e+002
3.289424e+003,3.421721e+002
3.290388e+003,3.450067e+002
3.291353e+003,3.436507e+002
3.292317e+003,3.409081e+002
3.293281e+003,3.383466e+002
3.294245e+003,3.393211e+002
3.295209e+003,3.433840e+002
3.296174e+003,3.450403e+002
3.297138e+003,3.449368e+002
3.298102e+003,3.463976e+002
3.299066e+003,3.481064e+002
3.300031e+003,3.468086e+002
3.300995e+003,3.453214e+002
3.301959e+003,3.467094e+002
3.302923e+003,3.483841e+002
3.303887e+003,3.492577e+002
3.304852e+003,3.497729e+002
3.305816e+003,3.501859e+002
3.306780e+003,3.507080e+002
3.307744e+003,3.511914e+002
3.308709e+003,3.532232e+002
3.309673e+003,3.573592e+002
3.310637e+003,3.577244e+002
3.311601e+003,3.550921e+002
3.312566e+003,3.529209e+002
3.313530e+003,3.522199e+002
3.314494e+003,3.553276e+002
3.315458e+003,3.591121e+002
3.316423e+003,3.580953e+002
3.317387e+003,3.559420e+002
3.318351e+003,3.604093e+002
3.319315e+003,3.649749e+002
3.320280e+003,3.611294e+002
3.321244e+003,3.581974e+002
3.322208e+003,3.596289e+002
3.323172e+003,3.618215e+002
3.324136e+003,3.638168e+002
3.325101e+003,3.662493e+002
3.326065e+003,3.690276e+002
3.327029e+003,3.696154e+002
3.327993e+003,3.674982e+002
3.328958e+003,3.688249e+002
3.329922e+003,3.728430e+002
3.330886e+003,3.736296e+002
3.331850e+003,3.731277e+002
3.332814e+003,3.754148e+002
3.333779e+003,3.776209e+002
3.334743e+003,3.764910e+002
3.335707e+003,3.747599e+002
3.336671e+003,3.743313e+002
3.337636e+003,3.750945e+002
3.338600e+003,3.771372e+002
3.339564e+003,3.796691e+002
3.340528e+003,3.828882e+002
3.341493e+003,3.853335e+002
3.342457e+003,3.868961e+002
3.343421e+003,3.864674e+002
3.344385e+003,3.846975e+002
3.345350e+003,3.836928e+002
3.346314e+003,3.835636e+002
3.347278e+003,3.834594e+002
3.348242e+003,3.835471e+002
3.349207e+003,3.842565e+002
3.350171e+003,3.855144e+002
3.351135e+003,3.878478e+002
3.352099e+003,3.897317e+002
3.353063e+003,3.891802e+002
3.354028e+003,3.902025e+002
3.354992e+003,3.938144e+002
3.355956e+003,3.969291e+002
3.356920e+003,3.984756e+002
3.357885e+003,3.994472e+002
3.358849e+003,4.001342e+002
3.359813e+003,4.010479e+002
3.360777e+003,4.021103e+002
3.361741e+003,3.995506e+002
3.362706e+003,3.963353e+002
3.363670e+003,4.008762e+002
3.364634e+003,4.062225e+002
3.365598e+003,4.028476e+002
3.366563e+003,3.986965e+002
3.367527e+003,3.992496e+002
3.368491e+003,4.019244e+002
3.369455e+003,4.048688e+002
3.370420e+003,4.079329e+002
3.371384e+003,4.128783e+002
3.372348e+003,4.122060e+002
3.373312e+003,4.060956e+002
3.374277e+003,4.074439e+002
3.375241e+003,4.146823e+002
3.376205e+003,4.192284e+002
3.377169e+003,4.206292e+002
3.378134e+003,4.216769e+002
3.379098e+003,4.223328e+002
3.380062e+003,4.225696e+002
3.381026e+003,4.216270e+002
3.381990e+003,4.160505e+002
3.382955e+003,4.128730e+002
3.383919e+003,4.175768e+002
3.384883e+003,4.197576e+002
3.385847e+003,4.173824e+002
3.386812e+003,4.162995e+002
3.387776e+003,4.178404e+002
3.388740e+003,4.180525e+002
3.389704e+003,4.163079e+002
3.390668e+003,4.177911e+002
3.391633e+003,4.217270e+002
3.392597e+003,4.229835e+002
3.393561e+003,4.237306e+002
3.394525e+003,4.286039e+002
3.395490e+003,4.326548e+002
3.396454e+003,4.324236e+002
3.397418e+003,4.298079e+002
3.398382e+003,4.259310e+002
3.399347e+003,4.238556e+002
3.400311e+003,4.257451e+002
3.401275e+003,4.276043e+002
3.402239e+003,4.284726e+002
3.403204e+003,4.302242e+002
3.404168e+003,4.325629e+002
3.405132e+003,4.338466e+002
3.406096e+003,4.345746e+002
3.407061e+003,4.365600e+002
3.408025e+003,4.380376e+002
3.408989e+003,4.367787e+002
3.409953e+003,4.346171e+002
3.410917e+003,4.331985e+002
3.411882e+003,4.335544e+002
3.412846e+003,4.389367e+002
3.413810e+003,4.406343e+002
3.414774e+003,4.372695e+002
3.415739e+003,4.371480e+002
3.416703e+003,4.402944e+002
3.417667e+003,4.409902e+002
3.418631e+003,4.388008e+002
3.419595e+003,4.360237e+002
3.420560e+003,4.340614e+002
3.421524e+003,4.373349e+002
3.422488e+003,4.420929e+002
3.423452e+003,4.417941e+002
3.424417e+003,4.409643e+002
3.425381e+003,4.427220e+002
3.426345e+003,4.432735e+002
3.427309e+003,4.416931e+002
3.428274e+003,4.405031e+002
3.429238e+003,4.405775e+002
3.430202e+003,4.415383e+002
3.431166e+003,4.431651e+002
3.432131e+003,4.416076e+002
3.433095e+003,4.385513e+002
3.434059e+003,4.432056e+002
3.435023e+003,4.495160e+002
3.435988e+003,4.477395e+002
3.436952e+003,4.459208e+002
3.437916e+003,4.493111e+002
3.438880e+003,4.536098e+002
3.439844e+003,4.562435e+002
3.440809e+003,4.568410e+002
3.441773e+003,4.541442e+002
3.442737e+003,4.541917e+002
3.443701e+003,4.573012e+002
3.444666e+003,4.577400e+002
3.445630e+003,4.570058e+002
3.446594e+003,4.607058e+002
3.447558e+003,4.652578e+002
3.448522e+003,4.648806e+002
3.449487e+003,4.625613e+002
3.450451e+003,4.609349e+002
3.451415e+003,4.611214e+002
3.452379e+003,4.652956e+002
3.453344e+003,4.694095e+002
3.454308e+003,4.731096e+002
3.455272e+003,4.723641e+002
3.456236e+003,4.680718e+002
3.457201e+003,4.661297e+002
3.458165e+003,4.675362e+002
3.459129e+003,4.742101e+002
3.460093e+003,4.816044e+002
3.461058e+003,4.820751e+002
3.462022e+003,4.793572e+002
3.462986e+003,4.786051e+002
3.463950e+003,4.789125e+002
3.464915e+003,4.802318e+002
3.465879e+003,4.815100e+002
3.466843e+003,4.825917e+002
3.467807e+003,4.838225e+002
3.468771e+003,4.851393e+002
3.469736e+003,4.855860e+002
3.470700e+003,4.855352e+002
3.471664e+003,4.876322e+002
3.472628e+003,4.908008e+002
3.473593e+003,4.909950e+002
3.474557e+003,4.912722e+002
3.475521e+003,4.965547e+002
3.476485e+003,5.003211e+002
3.477449e+003,5.000758e+002
3.478414e+003,4.990004e+002
3.479378e+003,4.985521e+002
3.480342e+003,5.008103e+002
3.481306e+003,5.062724e+002
3.482271e+003,5.067919e+002
3.483235e+003,5.031051e+002
3.484199e+003,5.053326e+002
3.485163e+003,5.093524e+002
3.486128e+003,5.070852e+002
3.487092e+003,5.051907e+002
3.488056e+003,5.087388e+002
3.489020e+003,5.124536e+002
3.489985e+003,5.136443e+002
3.490949e+003,5.158338e+002
3.491913e+003,5.213684e+002
3.492877e+003,5.233237e+002
3.493842e+003,5.212216e+002
3.494806e+003,5.195315e+002
3.495770e+003,5.185769e+002
3.496734e+003,5.187550e+002
3.497698e+003,5.202504e+002
3.498663e+003,5.239326e+002
3.499627e+003,5.258924e+002
3.500591e+003,0.000000e+000
