9.974011e+001,2.682930e+002
1.007043e+002,2.704727e+002
1.016686e+002,2.734512e+002
1.026328e+002,2.770035e+002
1.035970e+002,2.790589e+002
1.045613e+002,2.804015e+002
1.055255e+002,2.807531e+002
1.064897e+002,2.793614e+002
1.074540e+002,2.742838e+002
1.084182e+002,2.689553e+002
1.093824e+002,2.622965e+002
1.103467e+002,2.547143e+002
1.113109e+002,2.486121e+002
1.122751e+002,2.496596e+002
1.132394e+002,2.526682e+002
1.142036e+002,2.550466e+002
1.151678e+002,2.551818e+002
1.161321e+002,2.534485e+002
1.170963e+002,2.516174e+002
1.180605e+002,2.495417e+002
1.190248e+002,2.475370e+002
1.199890e+002,2.460797e+002
1.209532e+002,2.462858e+002
1.219175e+002,2.461584e+002
1.228817e+002,2.456919e+002
1.238459e+002,2.447946e+002
1.248102e+002,2.433154e+002
1.257744e+002,2.399406e+002
1.267386e+002,2.369968e+002
1.277029e+002,2.344827e+002
1.286671e+002,2.322001e+002
1.296313e+002,2.297262e+002
1.305956e+002,2.266554e+002
1.315598e+002,2.239258e+002
1.325240e+002,2.221989e+002
1.334883e+002,2.218093e+002
1.344525e+002,2.224715e+002
1.354167e+002,2.232883e+002
1.363810e+002,2.239018e+002
1.373452e+002,2.238378e+002
1.383094e+002,2.227092e+002
1.392737e+002,2.203326e+002
1.402379e+002,2.187581e+002
1.412021e+002,2.182361e+002
1.421664e+002,2.179900e+002
1.431306e+002,2.168499e+002
1.440948e+002,2.134862e+002
1.450591e+002,2.117068e+002
1.460233e+002,2.124411e+002
1.469875e+002,2.147477e+002
1.479518e+002,2.163564e+002
1.489160e+002,2.141168e+002
1.498802e+002,2.114372e+002
1.508445e+002,2.102157e+002
1.518087e+002,2.110176e+002
1.527729e+002,2.129978e+002
1.537372e+002,2.131271e+002
1.547014e+002,2.115445e+002
1.556656e+002,2.085857e+002
1.566299e+002,2.045974e+002
1.575941e+002,1.998511e+002
1.585583e+002,1.976774e+002
1.595226e+002,1.988844e+002
1.604868e+002,2.010865e+002
1.614510e+002,2.018430e+002
1.624153e+002,1.995840e+002
1.633795e+002,1.966376e+002
1.643438e+002,1.933165e+002
1.653080e+002,1.902250e+002
1.662722e+002,1.879503e+002
1.672365e+002,1.865634e+002
1.682007e+002,1.862082e+002
1.691649e+002,1.880739e+002
1.701292e+002,1.915710e+002
1.710934e+002,1.951583e+002
1.720576e+002,1.947457e+002
1.730219e+002,1.921814e+002
1.739861e+002,1.901231e+002
1.749503e+002,1.892512e+002
1.759146e+002,1.890893e+002
1.768788e+002,1.872831e+002
1.778430e+002,1.850100e+002
1.788073e+002,1.829665e+002
1.797715e+002,1.813209e+002
1.807357e+002,1.797728e+002
1.817000e+002,1.800444e+002
1.826642e+002,1.821833e+002
1.836284e+002,1.842625e+002
1.845927e+002,1.847668e+002
1.855569e+002,1.825188e+002
1.865211e+002,1.791573e+002
1.874854e+002,1.760771e+002
1.884496e+002,1.739299e+002
1.894138e+002,1.735260e+002
1.903781e+002,1.762900e+002
1.913423e+002,1.807601e+002
1.923065e+002,1.824463e+002
1.932708e+002,1.806458e+002
1.942350e+002,1.761786e+002
1.951992e+002,1.727314e+002
1.961635e+002,1.716018e+002
1.971277e+002,1.705125e+002
1.980919e+002,1.691388e+002
1.990562e+002,1.675367e+002
2.000204e+002,1.662594e+002
2.009846e+002,1.647431e+002
2.019489e+002,1.637440e+002
2.029131e+002,1.639909e+002
2.038773e+002,1.657412e+002
2.048416e+002,1.674955e+002
2.058058e+002,1.675975e+002
2.067700e+002,1.670730e+002
2.077343e+002,1.666316e+002
2.086985e+002,1.667872e+002
2.096627e+002,1.672328e+002
2.106270e+002,1.665006e+002
2.115912e+002,1.649209e+002
2.125554e+002,1.639860e+002
2.135197e+002,1.655221e+002
2.144839e+002,1.716040e+002
2.154481e+002,1.737389e+002
2.164124e+002,1.703739e+002
2.173766e+002,1.644470e+002
2.183408e+002,1.604005e+002
2.193051e+002,1.597647e+002
2.202693e+002,1.600283e+002
2.212335e+002,1.610369e+002
2.221978e+002,1.622911e+002
2.231620e+002,1.631553e+002
2.241262e+002,1.632394e+002
2.250904e+002,1.634497e+002
2.260547e+002,1.638361e+002
2.270189e+002,1.641740e+002
2.279831e+002,1.641105e+002
2.289474e+002,1.632820e+002
2.299116e+002,1.622483e+002
2.308758e+002,1.617069e+002
2.318401e+002,1.621954e+002
2.328043e+002,1.639456e+002
2.337685e+002,1.644868e+002
2.347328e+002,1.609327e+002
2.356970e+002,1.575827e+002
2.366612e+002,1.570517e+002
2.376255e+002,1.606907e+002
2.385897e+002,1.629758e+002
2.395539e+002,1.610671e+002
2.405182e+002,1.583300e+002
2.414824e+002,1.568148e+002
2.424466e+002,1.578220e+002
2.434109e+002,1.602141e+002
2.443751e+002,1.625344e+002
2.453393e+002,1.644011e+002
2.463036e+002,1.653489e+002
2.472678e+002,1.649509e+002
2.482320e+002,1.633961e+002
2.491963e+002,1.624469e+002
2.501605e+002,1.617641e+002
2.511247e+002,1.614890e+002
2.520890e+002,1.620136e+002
2.530532e+002,1.644916e+002
2.540174e+002,1.660333e+002
2.549817e+002,1.665496e+002
2.559459e+002,1.665992e+002
2.569102e+002,1.669426e+002
2.578744e+002,1.672932e+002
2.588386e+002,1.667716e+002
2.598029e+002,1.653748e+002
2.607671e+002,1.637475e+002
2.617313e+002,1.629512e+002
2.626956e+002,1.653050e+002
2.636598e+002,1.688375e+002
2.646240e+002,1.698198e+002
2.655883e+002,1.674379e+002
2.665525e+002,1.628404e+002
2.675167e+002,1.629286e+002
2.684810e+002,1.700503e+002
2.694452e+002,1.757267e+002
2.704094e+002,1.766423e+002
2.713737e+002,1.725494e+002
2.723379e+002,1.706830e+002
2.733021e+002,1.729633e+002
2.742664e+002,1.750990e+002
2.752306e+002,1.755508e+002
2.761948e+002,1.740307e+002
2.771591e+002,1.728651e+002
2.781233e+002,1.744230e+002
2.790875e+002,1.771567e+002
2.800518e+002,1.803047e+002
2.810160e+002,1.832513e+002
2.819802e+002,1.855290e+002
2.829445e+002,1.861270e+002
2.839087e+002,1.854932e+002
2.848729e+002,1.841047e+002
2.858372e+002,1.822437e+002
2.868014e+002,1.796833e+002
2.877656e+002,1.786523e+002
2.887299e+002,1.791998e+002
2.896941e+002,1.799530e+002
2.906583e+002,1.798201e+002
2.916226e+002,1.782967e+002
2.925868e+002,1.785258e+002
2.935510e+002,1.825742e+002
2.945153e+002,1.874641e+002
2.954795e+002,1.903172e+002
2.964437e+002,1.887472e+002
2.974080e+002,1.849610e+002
2.983722e+002,1.818480e+002
2.993364e+002,1.796492e+002
3.003007e+002,1.785853e+002
3.012649e+002,1.787826e+002
3.022291e+002,1.802049e+002
3.031934e+002,1.820877e+002
3.041576e+002,1.848566e+002
3.051218e+002,1.876909e+002
3.060861e+002,1.889465e+002
3.070503e+002,1.856053e+002
3.080145e+002,1.835203e+002
3.089788e+002,1.842249e+002
3.099430e+002,1.866864e+002
3.109072e+002,1.889752e+002
3.118715e+002,1.899650e+002
3.128357e+002,1.916062e+002
3.137999e+002,1.944929e+002
3.147642e+002,1.975517e+002
3.157284e+002,1.992400e+002
3.166926e+002,1.976791e+002
3.176569e+002,1.952380e+002
3.186211e+002,1.947663e+002
3.195853e+002,1.962848e+002
3.205496e+002,1.987934e+002
3.215138e+002,2.000676e+002
3.224780e+002,1.991700e+002
3.234423e+002,1.985452e+002
3.244065e+002,1.990650e+002
3.253707e+002,2.003177e+002
3.263350e+002,2.003968e+002
3.272992e+002,1.973543e+002
3.282634e+002,1.956139e+002
3.292277e+002,1.961496e+002
3.301919e+002,1.985168e+002
3.311561e+002,2.010863e+002
3.321204e+002,2.024039e+002
3.330846e+002,2.030941e+002
3.340488e+002,2.034005e+002
3.350131e+002,2.034664e+002
3.359773e+002,2.034754e+002
3.369415e+002,2.040854e+002
3.379058e+002,2.053884e+002
3.388700e+002,2.063670e+002
3.398342e+002,2.065823e+002
3.407985e+002,2.064434e+002
3.417627e+002,2.087057e+002
3.427269e+002,2.161267e+002
3.436912e+002,2.214099e+002
3.446554e+002,2.231903e+002
3.456196e+002,2.219378e+002
3.465839e+002,2.199675e+002
3.475481e+002,2.166875e+002
3.485123e+002,2.142921e+002
3.494765e+002,2.131950e+002
3.504408e+002,2.132500e+002
3.514050e+002,2.138758e+002
3.523692e+002,2.160351e+002
3.533335e+002,2.183656e+002
3.542977e+002,2.189671e+002
3.552619e+002,2.174810e+002
3.562262e+002,2.146572e+002
3.571904e+002,2.130644e+002
3.581546e+002,2.120822e+002
3.591189e+002,2.123426e+002
3.600831e+002,2.147064e+002
3.610473e+002,2.189534e+002
3.620116e+002,2.215846e+002
3.629758e+002,2.218283e+002
3.639400e+002,2.218659e+002
3.649043e+002,2.223713e+002
3.658685e+002,2.232664e+002
3.668327e+002,2.235972e+002
3.677970e+002,2.206329e+002
3.687612e+002,2.184267e+002
3.697254e+002,2.198503e+002
3.706897e+002,2.250336e+002
3.716539e+002,2.315918e+002
3.726181e+002,2.334496e+002
3.735824e+002,2.314067e+002
3.745466e+002,2.289158e+002
3.755108e+002,2.271039e+002
3.764751e+002,2.261767e+002
3.774393e+002,2.258845e+002
3.784035e+002,2.262508e+002
3.793678e+002,2.266081e+002
3.803320e+002,2.272034e+002
3.812962e+002,2.280744e+002
3.822605e+002,2.287012e+002
3.832247e+002,2.279012e+002
3.841889e+002,2.273710e+002
3.851532e+002,2.277180e+002
3.861174e+002,2.288616e+002
3.870816e+002,2.301817e+002
3.880459e+002,2.311305e+002
3.890101e+002,2.316456e+002
3.899743e+002,2.316543e+002
3.909386e+002,2.312866e+002
3.919028e+002,2.307784e+002
3.928670e+002,2.304185e+002
3.938313e+002,2.294886e+002
3.947955e+002,2.287961e+002
3.957597e+002,2.283770e+002
3.967240e+002,2.285005e+002
3.976882e+002,2.299204e+002
3.986524e+002,2.362525e+002
3.996167e+002,2.408410e+002
4.005809e+002,2.410840e+002
4.015451e+002,2.378759e+002
4.025094e+002,2.344866e+002
4.034736e+002,2.340189e+002
4.044378e+002,2.351871e+002
4.054021e+002,2.371443e+002
4.063663e+002,2.392985e+002
4.073305e+002,2.409162e+002
4.082948e+002,2.407262e+002
4.092590e+002,2.389680e+002
4.102232e+002,2.387430e+002
4.111875e+002,2.405405e+002
4.121517e+002,2.433581e+002
4.131159e+002,2.449721e+002
4.140802e+002,2.457061e+002
4.150444e+002,2.465812e+002
4.160086e+002,2.469127e+002
4.169729e+002,2.471279e+002
4.179371e+002,2.479319e+002
4.189013e+002,2.492005e+002
4.198656e+002,2.493670e+002
4.208298e+002,2.483393e+002
4.217940e+002,2.468043e+002
4.227583e+002,2.458064e+002
4.237225e+002,2.466241e+002
4.246867e+002,2.490180e+002
4.256510e+002,2.499203e+002
4.266152e+002,2.492272e+002
4.275794e+002,2.483717e+002
4.285437e+002,2.494541e+002
4.295079e+002,2.537284e+002
4.304721e+002,2.557133e+002
4.314364e+002,2.543745e+002
4.324006e+002,2.525464e+002
4.333648e+002,2.529777e+002
4.343291e+002,2.566496e+002
4.352933e+002,2.586322e+002
4.362575e+002,2.573087e+002
4.372218e+002,2.550347e+002
4.381860e+002,2.536818e+002
4.391502e+002,2.542646e+002
4.401145e+002,2.556300e+002
4.410787e+002,2.565597e+002
4.420429e+002,2.576596e+002
4.430072e+002,2.592714e+002
4.439714e+002,2.614167e+002
4.449356e+002,2.636063e+002
4.458999e+002,2.655305e+002
4.468641e+002,2.678897e+002
4.478283e+002,2.692592e+002
4.487926e+002,2.686089e+002
4.497568e+002,2.658666e+002
4.507210e+002,2.649866e+002
4.516853e+002,2.656910e+002
4.526495e+002,2.664236e+002
4.536137e+002,2.670773e+002
4.545780e+002,2.677355e+002
4.555422e+002,2.682189e+002
4.565064e+002,2.687663e+002
4.574707e+002,2.695037e+002
4.584349e+002,2.702046e+002
4.593991e+002,2.704756e+002
4.603634e+002,2.697722e+002
4.613276e+002,2.670150e+002
4.622918e+002,2.629848e+002
4.632561e+002,2.606989e+002
4.642203e+002,2.612321e+002
4.651845e+002,2.636991e+002
4.661488e+002,2.648619e+002
4.671130e+002,2.618301e+002
4.680772e+002,2.597948e+002
4.690415e+002,2.604795e+002
4.700057e+002,2.626514e+002
4.709699e+002,2.635369e+002
4.719342e+002,2.607127e+002
4.728984e+002,2.577163e+002
4.738626e+002,2.556857e+002
4.748269e+002,2.545998e+002
4.757911e+002,2.544479e+002
4.767553e+002,2.554149e+002
4.777196e+002,2.577755e+002
4.786838e+002,2.610934e+002
4.796480e+002,2.646743e+002
4.806123e+002,2.671337e+002
4.815765e+002,2.673012e+002
4.825407e+002,2.653184e+002
4.835050e+002,2.628380e+002
4.844692e+002,2.588442e+002
4.854334e+002,2.554203e+002
4.863977e+002,2.537146e+002
4.873619e+002,2.535024e+002
4.883261e+002,2.528969e+002
4.892904e+002,2.531138e+002
4.902546e+002,2.538033e+002
4.912188e+002,2.541843e+002
4.921831e+002,2.537754e+002
4.931473e+002,2.528627e+002
4.941115e+002,2.525591e+002
4.950758e+002,2.524727e+002
4.960400e+002,2.519656e+002
4.970042e+002,2.510085e+002
4.979685e+002,2.501619e+002
4.989327e+002,2.509923e+002
4.998969e+002,2.535879e+002
5.008612e+002,2.551689e+002
5.018254e+002,2.548001e+002
5.027896e+002,2.529647e+002
5.037539e+002,2.513736e+002
5.047181e+002,2.516628e+002
5.056823e+002,2.520181e+002
5.066466e+002,2.516401e+002
5.076108e+002,2.510028e+002
5.085750e+002,2.506740e+002
5.095393e+002,2.506084e+002
5.105035e+002,2.508730e+002
5.114677e+002,2.529777e+002
5.124320e+002,2.564449e+002
5.133962e+002,2.595879e+002
5.143605e+002,2.605001e+002
5.153247e+002,2.586720e+002
5.162889e+002,2.584912e+002
5.172532e+002,2.606171e+002
5.182174e+002,2.637988e+002
5.191816e+002,2.671993e+002
5.201459e+002,2.706606e+002
5.211101e+002,2.738288e+002
5.220743e+002,2.761183e+002
5.230386e+002,2.780541e+002
5.240028e+002,2.807540e+002
5.249670e+002,2.847131e+002
5.259313e+002,2.890947e+002
5.268955e+002,2.903195e+002
5.278597e+002,2.909284e+002
5.288240e+002,2.934561e+002
5.297882e+002,2.982801e+002
5.307524e+002,3.043803e+002
5.317167e+002,3.098970e+002
5.326809e+002,3.156501e+002
5.336451e+002,3.216782e+002
5.346094e+002,3.269221e+002
5.355736e+002,3.311867e+002
5.365378e+002,3.350815e+002
5.375021e+002,3.399110e+002
5.384663e+002,3.448046e+002
5.394305e+002,3.497353e+002
5.403948e+002,3.543633e+002
5.413590e+002,3.580727e+002
5.423232e+002,3.601071e+002
5.432875e+002,3.611868e+002
5.442517e+002,3.633004e+002
5.452159e+002,3.666369e+002
5.461802e+002,3.705544e+002
5.471444e+002,3.741673e+002
5.481086e+002,3.766874e+002
5.490729e+002,3.783303e+002
5.500371e+002,3.804034e+002
5.510013e+002,3.826840e+002
5.519656e+002,3.852244e+002
5.529298e+002,3.878556e+002
5.538940e+002,3.896336e+002
5.548583e+002,3.880718e+002
5.558225e+002,3.858112e+002
5.567867e+002,3.831486e+002
5.577510e+002,3.806237e+002
5.587152e+002,3.790390e+002
5.596794e+002,3.796115e+002
5.606437e+002,3.811630e+002
5.616079e+002,3.829985e+002
5.625721e+002,3.843595e+002
5.635364e+002,3.841857e+002
5.645006e+002,3.815165e+002
5.654648e+002,3.764945e+002
5.664291e+002,3.720713e+002
5.673933e+002,3.693851e+002
5.683575e+002,3.676103e+002
5.693218e+002,3.650064e+002
5.702860e+002,3.600850e+002
5.712502e+002,3.568323e+002
5.722145e+002,3.575067e+002
5.731787e+002,3.576069e+002
5.741429e+002,3.565558e+002
5.751072e+002,3.547896e+002
5.760714e+002,3.530065e+002
5.770356e+002,3.513190e+002
5.779999e+002,3.499034e+002
5.789641e+002,3.481543e+002
5.799283e+002,3.456880e+002
5.808926e+002,3.421477e+002
5.818568e+002,3.371619e+002
5.828210e+002,3.312705e+002
5.837853e+002,3.280009e+002
5.847495e+002,3.277791e+002
5.857137e+002,3.285844e+002
5.866780e+002,3.285067e+002
5.876422e+002,3.275430e+002
5.886064e+002,3.251935e+002
5.895707e+002,3.208334e+002
5.905349e+002,3.164484e+002
5.914991e+002,3.124115e+002
5.924634e+002,3.086107e+002
5.934276e+002,3.053177e+002
5.943918e+002,3.042369e+002
5.953560e+002,3.034056e+002
5.963203e+002,3.014585e+002
5.972845e+002,2.983232e+002
5.982487e+002,2.948361e+002
5.992130e+002,2.924691e+002
6.001772e+002,2.919188e+002
6.011414e+002,2.910583e+002
6.021057e+002,2.886978e+002
6.030699e+002,2.851873e+002
6.040341e+002,2.817009e+002
6.049984e+002,2.794084e+002
6.059626e+002,2.758774e+002
6.069268e+002,2.714461e+002
6.078911e+002,2.677372e+002
6.088553e+002,2.650349e+002
6.098195e+002,2.627926e+002
6.107838e+002,2.603477e+002
6.117480e+002,2.586393e+002
6.127122e+002,2.570430e+002
6.136765e+002,2.546125e+002
6.146407e+002,2.510639e+002
6.156049e+002,2.466385e+002
6.165692e+002,2.419644e+002
6.175334e+002,2.374940e+002
6.184976e+002,2.341216e+002
6.194619e+002,2.323148e+002
6.204261e+002,2.313561e+002
6.213903e+002,2.301016e+002
6.223546e+002,2.279211e+002
6.233188e+002,2.257423e+002
6.242830e+002,2.237513e+002
6.252473e+002,2.212719e+002
6.262115e+002,2.179171e+002
6.271757e+002,2.138080e+002
6.281400e+002,2.098057e+002
6.291042e+002,2.065478e+002
6.300684e+002,2.037006e+002
6.310327e+002,2.009255e+002
6.319969e+002,1.983345e+002
6.329611e+002,1.964260e+002
6.339254e+002,1.959682e+002
6.348896e+002,1.962488e+002
6.358538e+002,1.942782e+002
6.368181e+002,1.900210e+002
6.377823e+002,1.852835e+002
6.387465e+002,1.818898e+002
6.397108e+002,1.801488e+002
6.406750e+002,1.792529e+002
6.416392e+002,1.786623e+002
6.426035e+002,1.779196e+002
6.435677e+002,1.779494e+002
6.445319e+002,1.786146e+002
6.454962e+002,1.772828e+002
6.464604e+002,1.688187e+002
6.474246e+002,1.602942e+002
6.483889e+002,1.566253e+002
6.493531e+002,1.570698e+002
6.503173e+002,1.584005e+002
6.512816e+002,1.569561e+002
6.522458e+002,1.530548e+002
6.532100e+002,1.508315e+002
6.541743e+002,1.511506e+002
6.551385e+002,1.516808e+002
6.561027e+002,1.498343e+002
6.570670e+002,1.446561e+002
6.580312e+002,1.412198e+002
6.589954e+002,1.412313e+002
6.599597e+002,1.404888e+002
6.609239e+002,1.377488e+002
6.618881e+002,1.336823e+002
6.628524e+002,1.301811e+002
6.638166e+002,1.288289e+002
6.647808e+002,1.279243e+002
6.657451e+002,1.249432e+002
6.667093e+002,1.204325e+002
6.676735e+002,1.163117e+002
6.686378e+002,1.145624e+002
6.696020e+002,1.151161e+002
6.705662e+002,1.145197e+002
6.715305e+002,1.127516e+002
6.724947e+002,1.102129e+002
6.734589e+002,1.070985e+002
6.744232e+002,1.038084e+002
6.753874e+002,1.015282e+002
6.763516e+002,1.002801e+002
6.773159e+002,9.989436e+001
6.782801e+002,1.005399e+002
6.792443e+002,1.014162e+002
6.802086e+002,1.014545e+002
6.811728e+002,9.995653e+001
6.821370e+002,9.775813e+001
6.831013e+002,9.700093e+001
6.840655e+002,9.718501e+001
6.850297e+002,9.668442e+001
6.859940e+002,9.431908e+001
6.869582e+002,9.021461e+001
6.879224e+002,8.651155e+001
6.888867e+002,8.278249e+001
6.898509e+002,7.979134e+001
6.908151e+002,7.901897e+001
6.917794e+002,7.945912e+001
6.927436e+002,7.813025e+001
6.937078e+002,7.247644e+001
6.946721e+002,6.838588e+001
6.956363e+002,6.889005e+001
6.966005e+002,7.118060e+001
6.975648e+002,7.224329e+001
6.985290e+002,7.053838e+001
6.994932e+002,6.729211e+001
7.004575e+002,6.545468e+001
7.014217e+002,6.446112e+001
7.023859e+002,6.303166e+001
7.033502e+002,6.098247e+001
7.043144e+002,5.896355e+001
7.052786e+002,5.808479e+001
7.062429e+002,5.880211e+001
7.072071e+002,5.821329e+001
7.081713e+002,5.610493e+001
7.091356e+002,5.378543e+001
7.100998e+002,5.197972e+001
7.110640e+002,5.051218e+001
7.120283e+002,4.935687e+001
7.129925e+002,4.939105e+001
7.139567e+002,4.922444e+001
7.149210e+002,4.756699e+001
7.158852e+002,4.474902e+001
7.168494e+002,4.244048e+001
7.178137e+002,4.299498e+001
7.187779e+002,4.591484e+001
7.197421e+002,4.637415e+001
7.207064e+002,4.389732e+001
7.216706e+002,4.100410e+001
7.226348e+002,4.048836e+001
7.235991e+002,4.324373e+001
7.245633e+002,4.470934e+001
7.255275e+002,4.282289e+001
7.264918e+002,4.070305e+001
7.274560e+002,3.986742e+001
7.284202e+002,4.017204e+001
7.293845e+002,4.032375e+001
7.303487e+002,3.929771e+001
7.313129e+002,3.789229e+001
7.322772e+002,3.671382e+001
7.332414e+002,3.575313e+001
7.342056e+002,3.495016e+001
7.351699e+002,3.438647e+001
7.361341e+002,3.446452e+001
7.370983e+002,3.656247e+001
7.380626e+002,4.038176e+001
7.390268e+002,4.249304e+001
7.399910e+002,4.163120e+001
7.409553e+002,3.925946e+001
7.419195e+002,3.828485e+001
7.428837e+002,3.875751e+001
7.438480e+002,3.897078e+001
7.448122e+002,3.960020e+001
7.457764e+002,4.053738e+001
7.467407e+002,4.130830e+001
7.477049e+002,4.187196e+001
7.486691e+002,4.326450e+001
7.496334e+002,4.677753e+001
7.505976e+002,5.050029e+001
7.515618e+002,5.311942e+001
7.525261e+002,5.455667e+001
7.534903e+002,5.525371e+001
7.544545e+002,5.585860e+001
7.554188e+002,5.716858e+001
7.563830e+002,5.758952e+001
7.573472e+002,5.472716e+001
7.583115e+002,5.163434e+001
7.592757e+002,5.069485e+001
7.602399e+002,5.230432e+001
7.612042e+002,5.445995e+001
7.621684e+002,5.504797e+001
7.631326e+002,5.583180e+001
7.640969e+002,5.884586e+001
7.650611e+002,6.259529e+001
7.660253e+002,6.430066e+001
7.669896e+002,6.208905e+001
7.679538e+002,5.871169e+001
7.689180e+002,6.145126e+001
7.698823e+002,6.766963e+001
7.708465e+002,7.186334e+001
7.718107e+002,7.226398e+001
7.727750e+002,7.018916e+001
7.737392e+002,6.840915e+001
7.747034e+002,6.652821e+001
7.756677e+002,6.567889e+001
7.766319e+002,6.556079e+001
7.775961e+002,6.597285e+001
7.785604e+002,6.707889e+001
7.795246e+002,6.894923e+001
7.804888e+002,7.059351e+001
7.814531e+002,7.112988e+001
7.824173e+002,7.104114e+001
7.833815e+002,7.054568e+001
7.843458e+002,7.000079e+001
7.853100e+002,6.978233e+001
7.862742e+002,7.008330e+001
7.872385e+002,7.039331e+001
7.882027e+002,7.012703e+001
7.891669e+002,6.922614e+001
7.901312e+002,6.767386e+001
7.910954e+002,6.568314e+001
7.920596e+002,6.391972e+001
7.930239e+002,6.363409e+001
7.939881e+002,6.658067e+001
7.949523e+002,6.814554e+001
7.959166e+002,6.567403e+001
7.968808e+002,6.139236e+001
7.978450e+002,5.804393e+001
7.988093e+002,5.706772e+001
7.997735e+002,5.775873e+001
8.007377e+002,5.982391e+001
8.017020e+002,6.250606e+001
8.026662e+002,6.458139e+001
8.036304e+002,6.567090e+001
8.045947e+002,6.572881e+001
8.055589e+002,6.466075e+001
8.065231e+002,6.180974e+001
8.074874e+002,5.902211e+001
8.084516e+002,5.638560e+001
8.094158e+002,5.375533e+001
8.103801e+002,5.147920e+001
8.113443e+002,4.996420e+001
8.123085e+002,4.912193e+001
8.132728e+002,4.760023e+001
8.142370e+002,4.642181e+001
8.152012e+002,4.681541e+001
8.161655e+002,4.755768e+001
8.171297e+002,4.709267e+001
8.180939e+002,4.478746e+001
8.190582e+002,4.190219e+001
8.200224e+002,4.048274e+001
8.209866e+002,4.000095e+001
8.219509e+002,3.937010e+001
8.229151e+002,3.753395e+001
8.238793e+002,3.513885e+001
8.248436e+002,3.431261e+001
8.258078e+002,3.688603e+001
8.267720e+002,3.713344e+001
8.277363e+002,3.172765e+001
8.287005e+002,2.564485e+001
8.296647e+002,2.303633e+001
8.306290e+002,2.429146e+001
8.315932e+002,2.588266e+001
8.325574e+002,2.375623e+001
8.335217e+002,2.014055e+001
8.344859e+002,1.932468e+001
8.354501e+002,2.072293e+001
8.364144e+002,2.177769e+001
8.373786e+002,2.051045e+001
8.383428e+002,1.726666e+001
8.393071e+002,1.491277e+001
8.402713e+002,1.350468e+001
8.412355e+002,1.300433e+001
8.421998e+002,1.358334e+001
8.431640e+002,1.476796e+001
8.441282e+002,1.624420e+001
8.450925e+002,1.824414e+001
8.460567e+002,1.924641e+001
8.470209e+002,1.718925e+001
8.479852e+002,1.435477e+001
8.489494e+002,1.267470e+001
8.499136e+002,1.252663e+001
8.508779e+002,1.312894e+001
8.518421e+002,1.339813e+001
8.528063e+002,1.315146e+001
8.537706e+002,1.163405e+001
8.547348e+002,8.078690e+000
8.556990e+002,5.577301e+000
8.566633e+002,6.610352e+000
8.576275e+002,1.046176e+001
8.585917e+002,1.244283e+001
8.595560e+002,1.094357e+001
8.605202e+002,9.672089e+000
8.614844e+002,9.674805e+000
8.624487e+002,1.053482e+001
8.634129e+002,1.162997e+001
8.643771e+002,1.236429e+001
8.653414e+002,1.217099e+001
8.663056e+002,1.082892e+001
8.672698e+002,9.607819e+000
8.682341e+002,9.119904e+000
8.691983e+002,8.960342e+000
8.701625e+002,8.908112e+000
8.711268e+002,8.960022e+000
8.720910e+002,8.980804e+000
8.730552e+002,7.847549e+000
8.740195e+002,6.561234e+000
8.749837e+002,6.403229e+000
8.759479e+002,7.187973e+000
8.769122e+002,8.388138e+000
8.778764e+002,9.436722e+000
8.788406e+002,9.922791e+000
8.798049e+002,1.003133e+001
8.807691e+002,1.148239e+001
8.817333e+002,1.336525e+001
8.826976e+002,1.408820e+001
8.836618e+002,1.325768e+001
8.846260e+002,1.175836e+001
8.855903e+002,1.105399e+001
8.865545e+002,1.110632e+001
8.875187e+002,1.037071e+001
8.884830e+002,7.496185e+000
8.894472e+002,5.813339e+000
8.904114e+002,8.303101e+000
8.913757e+002,1.421243e+001
8.923399e+002,1.831418e+001
8.933041e+002,1.749013e+001
8.942684e+002,1.617355e+001
8.952326e+002,1.719072e+001
8.961968e+002,1.864369e+001
8.971611e+002,1.798584e+001
8.981253e+002,1.468347e+001
8.990895e+002,1.132642e+001
9.000538e+002,1.200063e+001
9.010180e+002,1.566789e+001
9.019822e+002,1.680136e+001
9.029465e+002,1.455948e+001
9.039107e+002,1.230003e+001
9.048749e+002,1.370343e+001
9.058392e+002,1.899222e+001
9.068034e+002,2.197768e+001
9.077676e+002,1.983167e+001
9.087319e+002,1.858693e+001
9.096961e+002,1.987833e+001
9.106603e+002,2.297260e+001
9.116246e+002,2.669090e+001
9.125888e+002,3.032449e+001
9.135530e+002,3.356151e+001
9.145173e+002,3.652472e+001
9.154815e+002,3.840468e+001
9.164457e+002,3.825403e+001
9.174100e+002,3.653052e+001
9.183742e+002,3.469531e+001
9.193384e+002,3.397731e+001
9.203027e+002,3.419377e+001
9.212669e+002,3.670700e+001
9.222311e+002,4.290590e+001
9.231954e+002,4.690012e+001
9.241596e+002,4.695523e+001
9.251238e+002,4.534192e+001
9.260881e+002,4.512120e+001
9.270523e+002,4.697031e+001
9.280165e+002,4.984544e+001
9.289808e+002,5.405737e+001
9.299450e+002,5.842763e+001
9.309092e+002,6.177411e+001
9.318735e+002,6.377306e+001
9.328377e+002,6.463483e+001
9.338019e+002,6.462819e+001
9.347662e+002,6.375534e+001
9.357304e+002,6.476558e+001
9.366946e+002,6.896381e+001
9.376589e+002,7.341829e+001
9.386231e+002,7.696931e+001
9.395873e+002,7.927733e+001
9.405516e+002,8.014261e+001
9.415158e+002,7.928011e+001
9.424800e+002,7.915602e+001
9.434443e+002,8.172995e+001
9.444085e+002,8.465739e+001
9.453727e+002,8.618069e+001
9.463370e+002,8.622670e+001
9.473012e+002,8.580055e+001
9.482654e+002,8.569131e+001
9.492297e+002,8.526862e+001
9.501939e+002,8.340268e+001
9.511581e+002,8.088515e+001
9.521224e+002,7.999789e+001
9.530866e+002,8.207169e+001
9.540508e+002,8.574524e+001
9.550151e+002,8.805441e+001
9.559793e+002,8.832063e+001
9.569435e+002,8.717599e+001
9.579078e+002,8.529172e+001
9.588720e+002,8.433240e+001
9.598362e+002,8.485208e+001
9.608005e+002,8.646455e+001
9.617647e+002,8.841933e+001
9.627289e+002,9.026389e+001
9.636932e+002,9.206085e+001
9.646574e+002,9.451028e+001
9.656216e+002,9.684792e+001
9.665859e+002,9.717458e+001
9.675501e+002,9.479335e+001
9.685143e+002,9.167290e+001
9.694786e+002,9.143806e+001
9.704428e+002,9.537866e+001
9.714070e+002,9.940094e+001
9.723713e+002,1.024670e+002
9.733355e+002,1.042718e+002
9.742997e+002,1.048425e+002
9.752640e+002,1.052946e+002
9.762282e+002,1.068465e+002
9.771924e+002,1.094970e+002
9.781567e+002,1.127146e+002
9.791209e+002,1.174967e+002
9.800851e+002,1.226087e+002
9.810494e+002,1.260373e+002
9.820136e+002,1.275332e+002
9.829778e+002,1.282439e+002
9.839421e+002,1.292790e+002
9.849063e+002,1.299216e+002
9.858705e+002,1.301630e+002
9.868348e+002,1.307973e+002
9.877990e+002,1.327502e+002
9.887632e+002,1.365491e+002
9.897275e+002,1.412593e+002
9.906917e+002,1.454850e+002
9.916559e+002,1.483503e+002
9.926202e+002,1.488816e+002
9.935844e+002,1.469230e+002
9.945486e+002,1.441379e+002
9.955129e+002,1.408792e+002
9.964771e+002,1.378244e+002
9.974413e+002,1.363028e+002
9.984056e+002,1.373439e+002
9.993698e+002,1.401357e+002
1.000334e+003,1.403462e+002
1.001298e+003,1.359460e+002
1.002263e+003,1.338004e+002
1.003227e+003,1.360505e+002
1.004191e+003,1.400283e+002
1.005155e+003,1.427991e+002
1.006119e+003,1.439128e+002
1.007084e+003,1.443906e+002
1.008048e+003,1.444059e+002
1.009012e+003,1.454806e+002
1.009976e+003,1.484077e+002
1.010941e+003,1.520569e+002
1.011905e+003,1.548448e+002
1.012869e+003,1.559518e+002
1.013833e+003,1.558226e+002
1.014798e+003,1.556878e+002
1.015762e+003,1.565130e+002
1.016726e+003,1.578537e+002
1.017690e+003,1.592671e+002
1.018654e+003,1.612691e+002
1.019619e+003,1.636706e+002
1.020583e+003,1.663651e+002
1.021547e+003,1.705821e+002
1.022511e+003,1.779587e+002
1.023476e+003,1.839110e+002
1.024440e+003,1.868324e+002
1.025404e+003,1.883974e+002
1.026368e+003,1.899849e+002
1.027333e+003,1.919965e+002
1.028297e+003,1.938667e+002
1.029261e+003,1.945740e+002
1.030225e+003,1.939842e+002
1.031190e+003,1.962463e+002
1.032154e+003,2.034280e+002
1.033118e+003,2.099215e+002
1.034082e+003,2.120055e+002
1.035047e+003,2.113732e+002
1.036011e+003,2.120587e+002
1.036975e+003,2.141087e+002
1.037939e+003,2.171179e+002
1.038903e+003,2.237917e+002
1.039868e+003,2.306126e+002
1.040832e+003,2.344294e+002
1.041796e+003,2.360099e+002
1.042760e+003,2.380672e+002
1.043725e+003,2.423851e+002
1.044689e+003,2.477564e+002
1.045653e+003,2.517603e+002
1.046617e+003,2.544104e+002
1.047582e+003,2.559270e+002
1.048546e+003,2.562244e+002
1.049510e+003,2.577690e+002
1.050474e+003,2.630413e+002
1.051438e+003,2.714306e+002
1.052403e+003,2.778945e+002
1.053367e+003,2.800601e+002
1.054331e+003,2.818047e+002
1.055295e+003,2.843218e+002
1.056260e+003,2.877084e+002
1.057224e+003,2.922189e+002
1.058188e+003,2.978618e+002
1.059152e+003,3.041501e+002
1.060117e+003,3.104596e+002
1.061081e+003,3.166981e+002
1.062045e+003,3.230767e+002
1.063009e+003,3.289876e+002
1.063974e+003,3.333413e+002
1.064938e+003,3.358763e+002
1.065902e+003,3.379916e+002
1.066866e+003,3.416732e+002
1.067830e+003,3.468706e+002
1.068795e+003,3.505916e+002
1.069759e+003,3.515503e+002
1.070723e+003,3.526023e+002
1.071687e+003,3.546057e+002
1.072652e+003,3.585003e+002
1.073616e+003,3.658177e+002
1.074580e+003,3.765919e+002
1.075544e+003,3.865599e+002
1.076509e+003,3.882656e+002
1.077473e+003,3.836842e+002
1.078437e+003,3.852428e+002
1.079401e+003,3.955887e+002
1.080365e+003,4.063699e+002
1.081330e+003,4.101142e+002
1.082294e+003,4.078455e+002
1.083258e+003,4.073931e+002
1.084222e+003,4.082608e+002
1.085187e+003,4.135523e+002
1.086151e+003,4.297882e+002
1.087115e+003,4.451779e+002
1.088079e+003,4.498492e+002
1.089043e+003,4.449188e+002
1.090008e+003,4.382246e+002
1.090972e+003,4.354437e+002
1.091936e+003,4.352320e+002
1.092900e+003,4.340068e+002
1.093865e+003,4.319255e+002
1.094829e+003,4.312477e+002
1.095793e+003,4.339124e+002
1.096757e+003,4.368393e+002
1.097722e+003,4.352829e+002
1.098686e+003,4.285721e+002
1.099650e+003,4.232538e+002
1.100614e+003,4.225344e+002
1.101578e+003,4.227211e+002
1.102543e+003,4.233975e+002
1.103507e+003,4.233474e+002
1.104471e+003,4.205290e+002
1.105435e+003,4.145875e+002
1.106400e+003,4.076174e+002
1.107364e+003,4.024636e+002
1.108328e+003,3.992413e+002
1.109292e+003,3.951493e+002
1.110257e+003,3.904850e+002
1.111221e+003,3.866050e+002
1.112185e+003,3.833512e+002
1.113149e+003,3.795753e+002
1.114114e+003,3.745005e+002
1.115078e+003,3.685582e+002
1.116042e+003,3.622369e+002
1.117006e+003,3.552740e+002
1.117970e+003,3.488438e+002
1.118935e+003,3.429662e+002
1.119899e+003,3.371155e+002
1.120863e+003,3.311382e+002
1.121827e+003,3.253171e+002
1.122792e+003,3.199287e+002
1.123756e+003,3.146681e+002
1.124720e+003,3.089034e+002
1.125684e+003,3.042859e+002
1.126649e+003,3.025686e+002
1.127613e+003,2.997850e+002
1.128577e+003,2.931006e+002
1.129541e+003,2.846803e+002
1.130505e+003,2.778482e+002
1.131470e+003,2.725797e+002
1.132434e+003,2.680419e+002
1.133398e+003,2.667050e+002
1.134362e+003,2.643546e+002
1.135327e+003,2.569530e+002
1.136291e+003,2.475150e+002
1.137255e+003,2.409353e+002
1.138219e+003,2.389329e+002
1.139184e+003,2.388529e+002
1.140148e+003,2.368443e+002
1.141112e+003,2.323035e+002
1.142076e+003,2.271542e+002
1.143041e+003,2.224071e+002
1.144005e+003,2.177273e+002
1.144969e+003,2.129389e+002
1.145933e+003,2.081516e+002
1.146897e+003,2.031257e+002
1.147862e+003,1.973893e+002
1.148826e+003,1.922467e+002
1.149790e+003,1.894256e+002
1.150754e+003,1.869814e+002
1.151719e+003,1.838500e+002
1.152683e+003,1.803055e+002
1.153647e+003,1.767021e+002
1.154611e+003,1.732827e+002
1.155576e+003,1.701237e+002
1.156540e+003,1.670608e+002
1.157504e+003,1.633538e+002
1.158468e+003,1.588649e+002
1.159432e+003,1.539519e+002
1.160397e+003,1.495110e+002
1.161361e+003,1.462102e+002
1.162325e+003,1.439901e+002
1.163289e+003,1.426940e+002
1.164254e+003,1.418097e+002
1.165218e+003,1.397220e+002
1.166182e+003,1.351529e+002
1.167146e+003,1.305982e+002
1.168111e+003,1.282620e+002
1.169075e+003,1.269033e+002
1.170039e+003,1.244539e+002
1.171003e+003,1.203672e+002
1.171968e+003,1.160777e+002
1.172932e+003,1.136742e+002
1.173896e+003,1.134795e+002
1.174860e+003,1.127336e+002
1.175824e+003,1.107539e+002
1.176789e+003,1.080792e+002
1.177753e+003,1.046220e+002
1.178717e+003,1.010023e+002
1.179681e+003,9.758641e+001
1.180646e+003,9.436423e+001
1.181610e+003,9.108334e+001
1.182574e+003,8.741748e+001
1.183538e+003,8.421950e+001
1.184503e+003,8.345453e+001
1.185467e+003,8.383130e+001
1.186431e+003,8.279730e+001
1.187395e+003,7.953578e+001
1.188359e+003,7.521239e+001
1.189324e+003,7.140768e+001
1.190288e+003,6.850081e+001
1.191252e+003,6.572176e+001
1.192216e+003,6.208470e+001
1.193181e+003,5.961133e+001
1.194145e+003,5.812675e+001
1.195109e+003,5.718114e+001
1.196073e+003,5.788835e+001
1.197038e+003,5.956995e+001
1.198002e+003,5.988510e+001
1.198966e+003,5.745503e+001
1.199930e+003,5.411908e+001
1.200895e+003,5.284528e+001
1.201859e+003,5.301729e+001
1.202823e+003,5.192699e+001
1.203787e+003,4.909854e+001
1.204751e+003,4.627901e+001
1.205716e+003,4.499477e+001
1.206680e+003,4.468466e+001
1.207644e+003,4.361481e+001
1.208608e+003,4.172514e+001
1.209573e+003,3.861380e+001
1.210537e+003,3.277188e+001
1.211501e+003,2.829375e+001
1.212465e+003,2.729425e+001
1.213430e+003,2.870958e+001
1.214394e+003,3.077481e+001
1.215358e+003,3.212473e+001
1.216322e+003,3.191679e+001
1.217286e+003,2.970619e+001
1.218251e+003,2.617662e+001
1.219215e+003,2.433945e+001
1.220179e+003,2.492709e+001
1.221143e+003,2.580870e+001
1.222108e+003,2.670168e+001
1.223072e+003,2.739935e+001
1.224036e+003,2.685728e+001
1.225000e+003,2.486551e+001
1.225965e+003,2.367833e+001
1.226929e+003,2.466817e+001
1.227893e+003,2.473834e+001
1.228857e+003,2.311319e+001
1.229822e+003,2.153140e+001
1.230786e+003,2.054265e+001
1.231750e+003,1.986421e+001
1.232714e+003,1.921605e+001
1.233678e+003,1.850089e+001
1.234643e+003,1.758737e+001
1.235607e+003,1.644499e+001
1.236571e+003,1.589197e+001
1.237535e+003,1.548204e+001
1.238500e+003,1.417343e+001
1.239464e+003,1.324544e+001
1.240428e+003,1.360959e+001
1.241392e+003,1.409729e+001
1.242357e+003,1.300357e+001
1.243321e+003,1.036751e+001
1.244285e+003,8.475464e+000
1.245249e+003,9.192215e+000
1.246214e+003,1.123039e+001
1.247178e+003,1.179396e+001
1.248142e+003,1.069385e+001
1.249106e+003,9.282211e+000
1.250070e+003,8.432617e+000
1.251035e+003,7.975006e+000
1.251999e+003,7.180725e+000
1.252963e+003,5.911484e+000
1.253927e+003,5.636505e+000
1.254892e+003,7.901352e+000
1.255856e+003,9.450134e+000
1.256820e+003,8.156174e+000
1.257784e+003,6.743301e+000
1.258749e+003,7.917740e+000
1.259713e+003,1.097232e+001
1.260677e+003,1.304204e+001
1.261641e+003,1.242232e+001
1.262605e+003,1.051709e+001
1.263570e+003,1.001872e+001
1.264534e+003,1.107849e+001
1.265498e+003,1.048457e+001
1.266462e+003,7.491135e+000
1.267427e+003,4.895660e+000
1.268391e+003,3.430923e+000
1.269355e+003,2.534943e+000
1.270319e+003,2.004196e+000
1.271284e+003,2.187088e+000
1.272248e+003,2.699097e+000
1.273212e+003,4.005295e+000
1.274176e+003,6.085449e+000
1.275141e+003,7.416458e+000
1.276105e+003,7.613693e+000
1.277069e+003,7.423615e+000
1.278033e+003,7.354630e+000
1.278997e+003,7.076691e+000
1.279962e+003,6.221970e+000
1.280926e+003,5.612381e+000
1.281890e+003,7.155991e+000
1.282854e+003,1.120634e+001
1.283819e+003,1.203416e+001
1.284783e+003,8.996399e+000
1.285747e+003,5.283600e+000
1.286711e+003,1.997818e+000
1.287676e+003,1.232910e-002
1.288640e+003,1.420898e-001
1.289604e+003,2.148575e+000
1.290568e+003,4.575241e+000
1.291532e+003,6.791718e+000
1.292497e+003,8.008087e+000
1.293461e+003,6.046707e+000
1.294425e+003,1.977814e+000
1.295389e+003,0.000000e+000
1.296354e+003,1.577011e+000
1.297318e+003,4.235565e+000
1.298282e+003,5.563690e+000
1.299246e+003,5.640732e+000
1.300211e+003,5.708511e+000
1.301175e+003,6.439133e+000
1.302139e+003,7.556870e+000
1.303103e+003,8.509079e+000
1.304068e+003,8.622681e+000
1.305032e+003,7.218597e+000
1.305996e+003,5.217468e+000
1.306960e+003,4.167542e+000
1.307924e+003,4.906906e+000
1.308889e+003,7.232727e+000
1.309853e+003,1.043466e+001
1.310817e+003,1.336389e+001
1.311781e+003,1.315656e+001
1.312746e+003,9.846802e+000
1.313710e+003,8.100891e+000
1.314674e+003,8.609894e+000
1.315638e+003,9.649048e+000
1.316603e+003,9.336060e+000
1.317567e+003,7.608032e+000
1.318531e+003,6.291260e+000
1.319495e+003,6.996124e+000
1.320459e+003,8.640320e+000
1.321424e+003,8.772461e+000
1.322388e+003,7.901779e+000
1.323352e+003,8.388672e+000
1.324316e+003,1.001645e+001
1.325281e+003,1.058160e+001
1.326245e+003,8.881271e+000
1.327209e+003,6.455368e+000
1.328173e+003,5.526779e+000
1.329138e+003,6.072708e+000
1.330102e+003,6.229843e+000
1.331066e+003,6.042770e+000
1.332030e+003,6.429901e+000
1.332995e+003,7.138840e+000
1.333959e+003,7.727173e+000
1.334923e+003,8.184662e+000
1.335887e+003,8.242767e+000
1.336851e+003,7.456253e+000
1.337816e+003,6.068085e+000
1.338780e+003,5.375961e+000
1.339744e+003,6.662003e+000
1.340708e+003,9.138748e+000
1.341673e+003,9.355103e+000
1.342637e+003,5.848206e+000
1.343601e+003,3.908234e+000
1.344565e+003,6.099487e+000
1.345530e+003,9.150742e+000
1.346494e+003,1.057652e+001
1.347458e+003,1.057384e+001
1.348422e+003,9.974747e+000
1.349386e+003,8.640060e+000
1.350351e+003,6.925629e+000
1.351315e+003,5.185318e+000
1.352279e+003,4.464935e+000
1.353243e+003,6.635544e+000
1.354208e+003,1.087221e+001
1.355172e+003,1.306995e+001
1.356136e+003,1.105798e+001
1.357100e+003,7.483521e+000
1.358065e+003,5.821671e+000
1.359029e+003,6.081467e+000
1.359993e+003,5.959076e+000
1.360957e+003,5.040314e+000
1.361922e+003,5.396576e+000
1.362886e+003,8.578049e+000
1.363850e+003,1.190724e+001
1.364814e+003,1.353308e+001
1.365778e+003,1.392102e+001
1.366743e+003,1.465430e+001
1.367707e+003,1.603737e+001
1.368671e+003,1.656621e+001
1.369635e+003,1.482101e+001
1.370600e+003,1.184242e+001
1.371564e+003,1.027364e+001
1.372528e+003,9.776779e+000
1.373492e+003,9.913452e+000
1.374457e+003,1.125511e+001
1.375421e+003,1.182909e+001
1.376385e+003,1.047252e+001
1.377349e+003,8.633423e+000
1.378313e+003,8.053497e+000
1.379278e+003,8.782181e+000
1.380242e+003,1.001770e+001
1.381206e+003,1.191132e+001
1.382170e+003,1.362416e+001
1.383135e+003,1.230894e+001
1.384099e+003,9.457611e+000
1.385063e+003,9.687820e+000
1.386027e+003,1.327498e+001
1.386992e+003,1.567624e+001
1.387956e+003,1.396973e+001
1.388920e+003,1.077568e+001
1.389884e+003,1.089536e+001
1.390849e+003,1.457094e+001
1.391813e+003,1.597276e+001
1.392777e+003,1.060968e+001
1.393741e+003,5.690598e+000
1.394705e+003,7.512604e+000
1.395670e+003,1.178313e+001
1.396634e+003,1.393230e+001
1.397598e+003,1.326057e+001
1.398562e+003,1.122949e+001
1.399527e+003,9.152496e+000
1.400491e+003,7.790146e+000
1.401455e+003,7.880798e+000
1.402419e+003,9.417374e+000
1.403384e+003,1.019177e+001
1.404348e+003,8.198715e+000
1.405312e+003,6.352402e+000
1.406276e+003,7.168335e+000
1.407240e+003,9.296280e+000
1.408205e+003,1.010175e+001
1.409169e+003,9.897812e+000
1.410133e+003,1.116130e+001
1.411097e+003,1.423936e+001
1.412062e+003,1.577425e+001
1.413026e+003,1.305315e+001
1.413990e+003,8.697784e+000
1.414954e+003,7.979172e+000
1.415919e+003,1.055034e+001
1.416883e+003,1.349091e+001
1.417847e+003,1.746544e+001
1.418811e+003,1.973550e+001
1.419776e+003,1.817966e+001
1.420740e+003,1.497208e+001
1.421704e+003,1.340454e+001
1.422668e+003,1.380600e+001
1.423632e+003,1.397945e+001
1.424597e+003,1.247798e+001
1.425561e+003,1.123227e+001
1.426525e+003,1.329283e+001
1.427489e+003,1.666566e+001
1.428454e+003,1.849799e+001
1.429418e+003,1.854541e+001
1.430382e+003,1.743758e+001
1.431346e+003,1.452603e+001
1.432311e+003,1.111255e+001
1.433275e+003,1.056700e+001
1.434239e+003,1.366331e+001
1.435203e+003,1.637181e+001
1.436167e+003,1.745227e+001
1.437132e+003,1.752690e+001
1.438096e+003,1.536533e+001
1.439060e+003,1.321365e+001
1.440024e+003,1.389645e+001
1.440989e+003,1.627873e+001
1.441953e+003,1.723366e+001
1.442917e+003,1.567200e+001
1.443881e+003,1.356091e+001
1.444846e+003,1.328210e+001
1.445810e+003,1.466750e+001
1.446774e+003,1.520184e+001
1.447738e+003,1.348459e+001
1.448703e+003,1.260269e+001
1.449667e+003,1.327048e+001
1.450631e+003,1.419475e+001
1.451595e+003,1.655301e+001
1.452559e+003,1.858313e+001
1.453524e+003,1.722498e+001
1.454488e+003,1.368958e+001
1.455452e+003,1.219020e+001
1.456416e+003,1.453937e+001
1.457381e+003,1.848312e+001
1.458345e+003,2.167496e+001
1.459309e+003,2.371188e+001
1.460273e+003,2.291289e+001
1.461238e+003,1.927748e+001
1.462202e+003,1.728271e+001
1.463166e+003,1.807703e+001
1.464130e+003,1.957043e+001
1.465094e+003,1.929663e+001
1.466059e+003,1.805754e+001
1.467023e+003,1.908626e+001
1.467987e+003,2.292690e+001
1.468951e+003,2.543147e+001
1.469916e+003,2.433792e+001
1.470880e+003,2.268359e+001
1.471844e+003,2.324924e+001
1.472808e+003,2.394797e+001
1.473773e+003,2.232333e+001
1.474737e+003,1.874730e+001
1.475701e+003,1.614259e+001
1.476665e+003,1.621684e+001
1.477630e+003,1.806395e+001
1.478594e+003,2.026543e+001
1.479558e+003,2.226390e+001
1.480522e+003,2.425021e+001
1.481486e+003,2.718341e+001
1.482451e+003,2.803375e+001
1.483415e+003,2.290752e+001
1.484379e+003,1.770465e+001
1.485343e+003,1.799155e+001
1.486308e+003,2.154407e+001
1.487272e+003,2.413275e+001
1.488236e+003,2.478333e+001
1.489200e+003,2.499640e+001
1.490165e+003,2.569926e+001
1.491129e+003,2.647145e+001
1.492093e+003,2.697034e+001
1.493057e+003,2.753418e+001
1.494021e+003,2.793837e+001
1.494986e+003,2.807768e+001
1.495950e+003,2.874104e+001
1.496914e+003,2.952856e+001
1.497878e+003,3.042316e+001
1.498843e+003,3.232301e+001
1.499807e+003,3.440819e+001
1.500771e+003,3.469991e+001
1.501735e+003,3.293573e+001
1.502700e+003,3.134235e+001
1.503664e+003,3.189252e+001
1.504628e+003,3.375729e+001
1.505592e+003,3.508911e+001
1.506557e+003,3.649078e+001
1.507521e+003,3.771031e+001
1.508485e+003,3.780696e+001
1.509449e+003,3.795181e+001
1.510413e+003,3.827185e+001
1.511378e+003,3.832738e+001
1.512342e+003,3.808348e+001
1.513306e+003,3.776721e+001
1.514270e+003,3.754860e+001
1.515235e+003,3.732561e+001
1.516199e+003,3.684067e+001
1.517163e+003,3.603177e+001
1.518127e+003,3.506749e+001
1.519092e+003,3.377484e+001
1.520056e+003,3.159464e+001
1.521020e+003,2.986684e+001
1.521984e+003,2.849538e+001
1.522948e+003,2.753885e+001
1.523913e+003,2.760503e+001
1.524877e+003,2.857796e+001
1.525841e+003,3.034778e+001
1.526805e+003,3.234259e+001
1.527770e+003,3.352223e+001
1.528734e+003,3.322385e+001
1.529698e+003,3.153069e+001
1.530662e+003,2.887273e+001
1.531627e+003,2.619461e+001
1.532591e+003,2.506120e+001
1.533555e+003,2.569159e+001
1.534519e+003,2.658237e+001
1.535484e+003,2.812587e+001
1.536448e+003,2.959918e+001
1.537412e+003,3.066945e+001
1.538376e+003,3.098727e+001
1.539340e+003,3.003326e+001
1.540305e+003,2.862541e+001
1.541269e+003,2.850053e+001
1.542233e+003,2.974956e+001
1.543197e+003,3.051459e+001
1.544162e+003,2.979697e+001
1.545126e+003,2.767909e+001
1.546090e+003,2.408893e+001
1.547054e+003,2.063173e+001
1.548019e+003,1.962106e+001
1.548983e+003,1.989886e+001
1.549947e+003,2.090520e+001
1.550911e+003,2.430252e+001
1.551875e+003,2.750554e+001
1.552840e+003,2.771637e+001
1.553804e+003,2.603719e+001
1.554768e+003,2.433411e+001
1.555732e+003,2.229828e+001
1.556697e+003,2.027441e+001
1.557661e+003,1.843672e+001
1.558625e+003,1.767912e+001
1.559589e+003,2.056436e+001
1.560554e+003,2.529958e+001
1.561518e+003,2.705421e+001
1.562482e+003,2.488736e+001
1.563446e+003,2.181403e+001
1.564411e+003,1.864317e+001
1.565375e+003,1.665042e+001
1.566339e+003,1.788425e+001
1.567303e+003,2.123613e+001
1.568267e+003,2.281691e+001
1.569232e+003,2.188184e+001
1.570196e+003,2.089806e+001
1.571160e+003,2.084703e+001
1.572124e+003,2.121301e+001
1.573089e+003,2.265480e+001
1.574053e+003,2.461896e+001
1.575017e+003,2.512474e+001
1.575981e+003,2.386273e+001
1.576946e+003,2.254700e+001
1.577910e+003,2.143686e+001
1.578874e+003,2.041841e+001
1.579838e+003,2.022064e+001
1.580802e+003,2.157648e+001
1.581767e+003,2.482332e+001
1.582731e+003,2.942661e+001
1.583695e+003,3.109071e+001
1.584659e+003,2.750995e+001
1.585624e+003,2.261426e+001
1.586588e+003,1.840462e+001
1.587552e+003,1.676578e+001
1.588516e+003,2.109621e+001
1.589481e+003,2.933667e+001
1.590445e+003,3.367139e+001
1.591409e+003,3.072939e+001
1.592373e+003,2.597562e+001
1.593338e+003,2.453157e+001
1.594302e+003,2.573253e+001
1.595266e+003,2.790863e+001
1.596230e+003,3.110242e+001
1.597194e+003,3.279781e+001
1.598159e+003,3.178766e+001
1.599123e+003,2.984026e+001
1.600087e+003,2.698198e+001
1.601051e+003,2.495380e+001
1.602016e+003,2.569441e+001
1.602980e+003,2.779163e+001
1.603944e+003,2.891861e+001
1.604908e+003,2.905333e+001
1.605873e+003,2.902995e+001
1.606837e+003,2.901733e+001
1.607801e+003,2.945677e+001
1.608765e+003,3.119258e+001
1.609729e+003,3.318613e+001
1.610694e+003,3.209995e+001
1.611658e+003,2.736632e+001
1.612622e+003,2.369217e+001
1.613586e+003,2.363885e+001
1.614551e+003,2.529639e+001
1.615515e+003,2.678548e+001
1.616479e+003,2.762749e+001
1.617443e+003,2.798877e+001
1.618408e+003,2.792296e+001
1.619372e+003,2.694127e+001
1.620336e+003,2.487413e+001
1.621300e+003,2.311159e+001
1.622265e+003,2.254924e+001
1.623229e+003,2.311263e+001
1.624193e+003,2.576871e+001
1.625157e+003,3.054037e+001
1.626121e+003,3.222429e+001
1.627086e+003,2.857033e+001
1.628050e+003,2.513196e+001
1.629014e+003,2.551306e+001
1.629978e+003,2.667053e+001
1.630943e+003,2.593289e+001
1.631907e+003,2.409172e+001
1.632871e+003,2.359250e+001
1.633835e+003,2.527603e+001
1.634800e+003,2.641025e+001
1.635764e+003,2.428300e+001
1.636728e+003,2.188271e+001
1.637692e+003,2.371631e+001
1.638656e+003,2.834290e+001
1.639621e+003,3.115454e+001
1.640585e+003,3.163698e+001
1.641549e+003,3.056340e+001
1.642513e+003,2.828047e+001
1.643478e+003,2.697670e+001
1.644442e+003,2.791365e+001
1.645406e+003,2.989531e+001
1.646370e+003,3.208813e+001
1.647335e+003,3.401561e+001
1.648299e+003,3.455624e+001
1.649263e+003,3.316599e+001
1.650227e+003,3.162683e+001
1.651192e+003,3.197328e+001
1.652156e+003,3.295978e+001
1.653120e+003,3.176038e+001
1.654084e+003,2.883342e+001
1.655048e+003,2.756007e+001
1.656013e+003,2.874545e+001
1.656977e+003,3.046199e+001
1.657941e+003,3.177425e+001
1.658905e+003,3.181622e+001
1.659870e+003,2.979013e+001
1.660834e+003,2.711607e+001
1.661798e+003,2.533131e+001
1.662762e+003,2.417085e+001
1.663727e+003,2.425038e+001
1.664691e+003,2.646689e+001
1.665655e+003,2.923932e+001
1.666619e+003,3.191910e+001
1.667583e+003,3.432230e+001
1.668548e+003,3.554811e+001
1.669512e+003,3.520683e+001
1.670476e+003,3.350726e+001
1.671440e+003,3.091806e+001
1.672405e+003,2.930533e+001
1.673369e+003,2.976279e+001
1.674333e+003,3.109428e+001
1.675297e+003,3.138367e+001
1.676262e+003,3.078085e+001
1.677226e+003,3.047580e+001
1.678190e+003,3.057578e+001
1.679154e+003,3.089354e+001
1.680119e+003,3.121057e+001
1.681083e+003,3.172513e+001
1.682047e+003,3.311349e+001
1.683011e+003,3.488797e+001
1.683975e+003,3.629430e+001
1.684940e+003,3.737567e+001
1.685904e+003,3.780374e+001
1.686868e+003,3.721414e+001
1.687832e+003,3.715443e+001
1.688797e+003,3.909610e+001
1.689761e+003,4.155511e+001
1.690725e+003,4.209053e+001
1.691689e+003,4.098427e+001
1.692654e+003,3.920186e+001
1.693618e+003,3.611917e+001
1.694582e+003,3.486876e+001
1.695546e+003,3.590437e+001
1.696510e+003,3.712823e+001
1.697475e+003,3.851202e+001
1.698439e+003,3.965584e+001
1.699403e+003,3.877792e+001
1.700367e+003,3.658386e+001
1.701332e+003,3.690495e+001
1.702296e+003,4.138402e+001
1.703260e+003,4.636896e+001
1.704224e+003,4.745009e+001
1.705189e+003,4.525926e+001
1.706153e+003,4.375388e+001
1.707117e+003,4.278548e+001
1.708081e+003,4.157237e+001
1.709046e+003,4.265428e+001
1.710010e+003,4.419521e+001
1.710974e+003,4.380952e+001
1.711938e+003,4.329675e+001
1.712902e+003,4.402791e+001
1.713867e+003,4.490457e+001
1.714831e+003,4.548450e+001
1.715795e+003,4.599315e+001
1.716759e+003,4.573508e+001
1.717724e+003,4.421373e+001
1.718688e+003,4.300098e+001
1.719652e+003,4.404031e+001
1.720616e+003,4.655098e+001
1.721581e+003,4.900659e+001
1.722545e+003,5.234773e+001
1.723509e+003,5.159879e+001
1.724473e+003,4.230115e+001
1.725438e+003,3.749071e+001
1.726402e+003,4.492795e+001
1.727366e+003,5.194029e+001
1.728330e+003,5.056055e+001
1.729294e+003,4.587686e+001
1.730259e+003,4.493636e+001
1.731223e+003,4.776904e+001
1.732187e+003,4.969405e+001
1.733151e+003,4.838199e+001
1.734116e+003,4.649181e+001
1.735080e+003,4.778488e+001
1.736044e+003,5.095432e+001
1.737008e+003,5.148239e+001
1.737973e+003,4.921227e+001
1.738937e+003,4.701466e+001
1.739901e+003,4.522490e+001
1.740865e+003,4.392822e+001
1.741829e+003,4.347504e+001
1.742794e+003,4.343555e+001
1.743758e+003,4.368185e+001
1.744722e+003,4.403619e+001
1.745686e+003,4.366841e+001
1.746651e+003,4.270930e+001
1.747615e+003,4.298628e+001
1.748579e+003,4.503783e+001
1.749543e+003,4.724855e+001
1.750508e+003,4.978915e+001
1.751472e+003,5.173134e+001
1.752436e+003,5.096335e+001
1.753400e+003,4.832561e+001
1.754365e+003,4.625490e+001
1.755329e+003,4.535928e+001
1.756293e+003,4.592972e+001
1.757257e+003,4.823941e+001
1.758221e+003,5.035358e+001
1.759186e+003,5.043088e+001
1.760150e+003,4.956145e+001
1.761114e+003,4.926987e+001
1.762078e+003,4.855901e+001
1.763043e+003,4.782825e+001
1.764007e+003,4.728464e+001
1.764971e+003,4.576683e+001
1.765935e+003,4.346176e+001
1.766900e+003,4.235997e+001
1.767864e+003,4.408960e+001
1.768828e+003,4.635440e+001
1.769792e+003,4.543822e+001
1.770756e+003,4.286551e+001
1.771721e+003,4.400694e+001
1.772685e+003,4.961481e+001
1.773649e+003,5.367764e+001
1.774613e+003,5.178252e+001
1.775578e+003,4.735794e+001
1.776542e+003,4.650845e+001
1.777506e+003,4.894061e+001
1.778470e+003,4.908957e+001
1.779435e+003,4.537515e+001
1.780399e+003,4.288669e+001
1.781363e+003,4.379666e+001
1.782327e+003,4.559532e+001
1.783292e+003,4.729662e+001
1.784256e+003,4.768660e+001
1.785220e+003,4.623824e+001
1.786184e+003,4.401338e+001
1.787148e+003,4.141769e+001
1.788113e+003,3.862247e+001
1.789077e+003,3.791524e+001
1.790041e+003,4.102795e+001
1.791005e+003,4.426276e+001
1.791970e+003,4.392030e+001
1.792934e+003,4.178407e+001
1.793898e+003,4.022960e+001
1.794862e+003,3.938841e+001
1.795827e+003,4.135301e+001
1.796791e+003,4.655872e+001
1.797755e+003,4.885931e+001
1.798719e+003,4.444455e+001
1.799683e+003,3.934818e+001
1.800648e+003,4.001877e+001
1.801612e+003,4.419621e+001
1.802576e+003,4.594766e+001
1.803540e+003,4.506349e+001
1.804505e+003,4.457703e+001
1.805469e+003,4.726880e+001
1.806433e+003,4.923439e+001
1.807397e+003,4.761212e+001
1.808362e+003,4.506627e+001
1.809326e+003,4.321976e+001
1.810290e+003,4.196481e+001
1.811254e+003,4.104875e+001
1.812219e+003,4.052153e+001
1.813183e+003,4.044753e+001
1.814147e+003,4.035791e+001
1.815111e+003,3.944897e+001
1.816075e+003,3.781691e+001
1.817040e+003,3.666095e+001
1.818004e+003,3.683568e+001
1.818968e+003,3.828140e+001
1.819932e+003,4.098801e+001
1.820897e+003,4.472771e+001
1.821861e+003,4.520755e+001
1.822825e+003,4.020985e+001
1.823789e+003,3.586230e+001
1.824754e+003,3.588818e+001
1.825718e+003,3.787329e+001
1.826682e+003,3.962946e+001
1.827646e+003,4.053464e+001
1.828610e+003,4.033266e+001
1.829575e+003,3.949812e+001
1.830539e+003,3.962894e+001
1.831503e+003,4.148634e+001
1.832467e+003,4.334703e+001
1.833432e+003,4.388913e+001
1.834396e+003,4.329648e+001
1.835360e+003,4.176744e+001
1.836324e+003,4.059586e+001
1.837289e+003,4.185760e+001
1.838253e+003,4.455247e+001
1.839217e+003,4.513713e+001
1.840181e+003,4.260938e+001
1.841146e+003,4.021556e+001
1.842110e+003,4.099434e+001
1.843074e+003,4.357001e+001
1.844038e+003,4.437738e+001
1.845002e+003,4.326910e+001
1.845967e+003,4.299217e+001
1.846931e+003,4.438821e+001
1.847895e+003,4.554388e+001
1.848859e+003,4.553259e+001
1.849824e+003,4.391304e+001
1.850788e+003,4.010077e+001
1.851752e+003,3.686282e+001
1.852716e+003,3.691811e+001
1.853681e+003,3.949292e+001
1.854645e+003,4.284181e+001
1.855609e+003,4.577448e+001
1.856573e+003,4.709128e+001
1.857537e+003,4.604384e+001
1.858502e+003,4.382782e+001
1.859466e+003,4.246742e+001
1.860430e+003,4.255286e+001
1.861394e+003,4.382370e+001
1.862359e+003,4.532637e+001
1.863323e+003,4.430231e+001
1.864287e+003,4.032173e+001
1.865251e+003,3.783691e+001
1.866216e+003,3.926077e+001
1.867180e+003,4.093256e+001
1.868144e+003,3.890210e+001
1.869108e+003,3.606012e+001
1.870073e+003,3.848674e+001
1.871037e+003,4.460890e+001
1.872001e+003,4.502014e+001
1.872965e+003,3.871104e+001
1.873929e+003,3.537292e+001
1.874894e+003,3.676970e+001
1.875858e+003,3.869769e+001
1.876822e+003,4.168590e+001
1.877786e+003,4.404265e+001
1.878751e+003,4.392821e+001
1.879715e+003,4.278683e+001
1.880679e+003,4.229938e+001
1.881643e+003,4.231705e+001
1.882608e+003,4.172134e+001
1.883572e+003,4.041678e+001
1.884536e+003,4.020418e+001
1.885500e+003,4.242233e+001
1.886464e+003,4.494765e+001
1.887429e+003,4.476959e+001
1.888393e+003,4.297072e+001
1.889357e+003,4.219481e+001
1.890321e+003,4.220589e+001
1.891286e+003,4.091949e+001
1.892250e+003,3.691521e+001
1.893214e+003,3.507195e+001
1.894178e+003,3.959518e+001
1.895143e+003,4.484229e+001
1.896107e+003,4.426041e+001
1.897071e+003,4.109773e+001
1.898035e+003,4.264052e+001
1.899000e+003,4.721631e+001
1.899964e+003,4.836862e+001
1.900928e+003,4.716132e+001
1.901892e+003,4.576884e+001
1.902856e+003,4.216228e+001
1.903821e+003,3.902475e+001
1.904785e+003,3.720972e+001
1.905749e+003,3.601163e+001
1.906713e+003,3.672408e+001
1.907678e+003,3.855324e+001
1.908642e+003,3.864661e+001
1.909606e+003,3.678195e+001
1.910570e+003,3.551227e+001
1.911535e+003,3.619377e+001
1.912499e+003,3.748210e+001
1.913463e+003,3.746750e+001
1.914427e+003,3.620103e+001
1.915391e+003,3.558827e+001
1.916356e+003,3.637227e+001
1.917320e+003,3.776807e+001
1.918284e+003,4.002977e+001
1.919248e+003,4.167232e+001
1.920213e+003,4.104204e+001
1.921177e+003,3.975150e+001
1.922141e+003,3.877933e+001
1.923105e+003,3.907880e+001
1.924070e+003,4.266977e+001
1.925034e+003,4.749744e+001
1.925998e+003,4.711760e+001
1.926962e+003,4.134105e+001
1.927927e+003,3.840974e+001
1.928891e+003,4.095244e+001
1.929855e+003,4.282558e+001
1.930819e+003,4.285229e+001
1.931783e+003,4.148694e+001
1.932748e+003,3.782462e+001
1.933712e+003,3.475749e+001
1.934676e+003,3.538193e+001
1.935640e+003,3.790381e+001
1.936605e+003,3.886847e+001
1.937569e+003,3.754265e+001
1.938533e+003,3.531384e+001
1.939497e+003,3.370786e+001
1.940462e+003,3.426961e+001
1.941426e+003,3.788887e+001
1.942390e+003,4.218456e+001
1.943354e+003,4.393018e+001
1.944318e+003,4.295963e+001
1.945283e+003,4.061800e+001
1.946247e+003,3.810414e+001
1.947211e+003,3.617784e+001
1.948175e+003,3.494305e+001
1.949140e+003,3.427884e+001
1.950104e+003,3.325246e+001
1.951068e+003,3.259950e+001
1.952032e+003,3.441862e+001
1.952997e+003,3.737836e+001
1.953961e+003,3.624265e+001
1.954925e+003,3.025648e+001
1.955889e+003,2.773712e+001
1.956854e+003,3.135027e+001
1.957818e+003,3.395496e+001
1.958782e+003,3.473996e+001
1.959746e+003,3.600008e+001
1.960710e+003,3.701373e+001
1.961675e+003,3.778708e+001
1.962639e+003,4.065709e+001
1.963603e+003,4.347963e+001
1.964567e+003,4.113971e+001
1.965532e+003,3.489769e+001
1.966496e+003,3.251437e+001
1.967460e+003,3.654350e+001
1.968424e+003,4.034924e+001
1.969389e+003,4.006859e+001
1.970353e+003,3.831308e+001
1.971317e+003,3.702650e+001
1.972281e+003,3.587112e+001
1.973245e+003,3.408855e+001
1.974210e+003,3.249033e+001
1.975174e+003,3.292873e+001
1.976138e+003,3.489134e+001
1.977102e+003,3.518268e+001
1.978067e+003,3.251944e+001
1.979031e+003,3.014601e+001
1.979995e+003,3.127917e+001
1.980959e+003,3.376004e+001
1.981924e+003,3.347002e+001
1.982888e+003,3.127351e+001
1.983852e+003,3.053941e+001
1.984816e+003,3.092375e+001
1.985781e+003,3.171974e+001
1.986745e+003,3.356380e+001
1.987709e+003,3.610686e+001
1.988673e+003,3.897781e+001
1.989637e+003,4.048756e+001
1.990602e+003,3.908818e+001
1.991566e+003,3.587848e+001
1.992530e+003,3.296700e+001
1.993494e+003,3.118494e+001
1.994459e+003,3.067351e+001
1.995423e+003,3.078932e+001
1.996387e+003,3.175351e+001
1.997351e+003,3.498918e+001
1.998316e+003,3.605118e+001
1.999280e+003,3.310732e+001
2.000244e+003,3.087334e+001
2.001208e+003,3.106096e+001
2.002172e+003,3.322224e+001
2.003137e+003,3.840367e+001
2.004101e+003,4.367279e+001
2.005065e+003,4.362646e+001
2.006029e+003,3.876204e+001
2.006994e+003,3.591519e+001
2.007958e+003,3.761769e+001
2.008922e+003,3.923489e+001
2.009886e+003,3.831729e+001
2.010851e+003,3.713431e+001
2.011815e+003,3.710504e+001
2.012779e+003,3.734482e+001
2.013743e+003,3.679704e+001
2.014708e+003,3.549571e+001
2.015672e+003,3.383537e+001
2.016636e+003,3.235585e+001
2.017600e+003,3.193102e+001
2.018564e+003,3.269739e+001
2.019529e+003,3.408215e+001
2.020493e+003,3.604626e+001
2.021457e+003,3.824979e+001
2.022421e+003,3.905597e+001
2.023386e+003,3.830116e+001
2.024350e+003,3.702203e+001
2.025314e+003,3.537526e+001
2.026278e+003,3.528659e+001
2.027243e+003,3.734052e+001
2.028207e+003,3.925423e+001
2.029171e+003,4.011824e+001
2.030135e+003,3.990437e+001
2.031099e+003,3.814256e+001
2.032064e+003,3.629811e+001
2.033028e+003,3.673972e+001
2.033992e+003,3.816225e+001
2.034956e+003,3.731125e+001
2.035921e+003,3.520659e+001
2.036885e+003,3.427748e+001
2.037849e+003,3.439700e+001
2.038813e+003,3.635658e+001
2.039778e+003,4.050919e+001
2.040742e+003,4.121916e+001
2.041706e+003,3.497371e+001
2.042670e+003,2.886819e+001
2.043635e+003,2.763789e+001
2.044599e+003,3.021475e+001
2.045563e+003,3.699327e+001
2.046527e+003,4.658076e+001
2.047491e+003,4.940352e+001
2.048456e+003,4.204231e+001
2.049420e+003,3.632208e+001
2.050384e+003,3.532028e+001
2.051348e+003,3.505971e+001
2.052313e+003,3.458369e+001
2.053277e+003,3.468813e+001
2.054241e+003,3.717574e+001
2.055205e+003,4.026567e+001
2.056170e+003,4.051846e+001
2.057134e+003,3.776869e+001
2.058098e+003,3.410901e+001
2.059062e+003,3.102211e+001
2.060027e+003,2.916704e+001
2.060991e+003,2.847885e+001
2.061955e+003,2.919400e+001
2.062919e+003,3.271600e+001
2.063884e+003,3.616322e+001
2.064848e+003,3.630162e+001
2.065812e+003,3.510861e+001
2.066776e+003,3.486533e+001
2.067740e+003,3.486566e+001
2.068705e+003,3.364876e+001
2.069669e+003,3.143065e+001
2.070633e+003,2.988736e+001
2.071597e+003,2.962302e+001
2.072562e+003,2.994287e+001
2.073526e+003,3.101778e+001
2.074490e+003,3.265068e+001
2.075454e+003,3.241983e+001
2.076418e+003,3.044156e+001
2.077383e+003,2.988062e+001
2.078347e+003,2.981422e+001
2.079311e+003,2.789189e+001
2.080275e+003,2.560544e+001
2.081240e+003,2.631664e+001
2.082204e+003,3.002313e+001
2.083168e+003,3.319911e+001
2.084132e+003,3.354405e+001
2.085096e+003,3.214644e+001
2.086061e+003,3.119438e+001
2.087025e+003,3.087273e+001
2.087989e+003,2.993304e+001
2.088953e+003,2.831223e+001
2.089918e+003,2.810707e+001
2.090882e+003,2.975345e+001
2.091846e+003,3.044565e+001
2.092810e+003,2.938397e+001
2.093775e+003,2.936476e+001
2.094739e+003,3.164075e+001
2.095703e+003,3.343745e+001
2.096667e+003,3.271347e+001
2.097632e+003,3.097667e+001
2.098596e+003,3.080861e+001
2.099560e+003,3.212651e+001
2.100524e+003,3.183185e+001
2.101489e+003,2.831020e+001
2.102453e+003,2.601120e+001
2.103417e+003,2.707915e+001
2.104381e+003,2.700500e+001
2.105345e+003,2.504234e+001
2.106310e+003,2.300073e+001
2.107274e+003,1.972560e+001
2.108238e+003,1.853812e+001
2.109202e+003,2.428337e+001
2.110167e+003,3.115659e+001
2.111131e+003,2.907938e+001
2.112095e+003,2.040953e+001
2.113059e+003,1.853755e+001
2.114023e+003,2.764503e+001
2.114988e+003,3.513966e+001
2.115952e+003,3.605544e+001
2.116916e+003,3.428494e+001
2.117880e+003,2.869316e+001
2.118845e+003,2.442828e+001
2.119809e+003,2.767845e+001
2.120773e+003,3.242961e+001
2.121737e+003,3.098511e+001
2.122702e+003,2.622372e+001
2.123666e+003,2.407999e+001
2.124630e+003,2.444838e+001
2.125594e+003,2.412465e+001
2.126559e+003,2.252225e+001
2.127523e+003,2.121475e+001
2.128487e+003,2.189081e+001
2.129451e+003,2.250916e+001
2.130416e+003,2.078363e+001
2.131380e+003,1.866870e+001
2.132344e+003,1.723236e+001
2.133308e+003,1.694449e+001
2.134272e+003,1.855800e+001
2.135237e+003,2.077931e+001
2.136201e+003,2.262430e+001
2.137165e+003,2.375748e+001
2.138129e+003,2.241620e+001
2.139094e+003,1.826207e+001
2.140058e+003,1.630241e+001
2.141022e+003,2.029065e+001
2.141986e+003,2.402873e+001
2.142950e+003,2.212772e+001
2.143915e+003,1.865419e+001
2.144879e+003,1.768202e+001
2.145843e+003,1.755521e+001
2.146807e+003,1.556239e+001
2.147772e+003,1.323076e+001
2.148736e+003,1.392160e+001
2.149700e+003,1.698709e+001
2.150664e+003,1.828755e+001
2.151629e+003,1.639896e+001
2.152593e+003,1.510475e+001
2.153557e+003,1.825366e+001
2.154521e+003,2.191980e+001
2.155486e+003,1.945358e+001
2.156450e+003,1.509192e+001
2.157414e+003,1.663004e+001
2.158378e+003,2.123604e+001
2.159343e+003,2.293654e+001
2.160307e+003,2.195439e+001
2.161271e+003,2.089174e+001
2.162235e+003,2.018089e+001
2.163199e+003,1.859103e+001
2.164164e+003,1.586301e+001
2.165128e+003,1.416083e+001
2.166092e+003,1.564279e+001
2.167056e+003,1.821704e+001
2.168021e+003,1.869780e+001
2.168985e+003,1.705894e+001
2.169949e+003,1.309914e+001
2.170913e+003,8.846039e+000
2.171877e+003,9.517410e+000
2.172842e+003,1.420818e+001
2.173806e+003,1.696306e+001
2.174770e+003,1.659512e+001
2.175734e+003,1.688029e+001
2.176699e+003,1.942329e+001
2.177663e+003,2.153857e+001
2.178627e+003,2.114249e+001
2.179591e+003,1.963364e+001
2.180556e+003,1.863091e+001
2.181520e+003,1.720912e+001
2.182484e+003,1.306934e+001
2.183448e+003,8.357513e+000
2.184413e+003,8.940033e+000
2.185377e+003,1.362109e+001
2.186341e+003,1.622256e+001
2.187305e+003,1.555794e+001
2.188270e+003,1.440060e+001
2.189234e+003,1.437822e+001
2.190198e+003,1.556921e+001
2.191162e+003,1.743381e+001
2.192126e+003,1.877522e+001
2.193091e+003,1.926175e+001
2.194055e+003,1.894145e+001
2.195019e+003,1.690656e+001
2.195983e+003,1.414987e+001
2.196948e+003,1.176564e+001
2.197912e+003,1.019534e+001
2.198876e+003,1.201987e+001
2.199840e+003,1.647260e+001
2.200804e+003,1.810513e+001
2.201769e+003,1.511362e+001
2.202733e+003,1.218246e+001
2.203697e+003,1.312704e+001
2.204661e+003,1.467589e+001
2.205626e+003,1.159987e+001
2.206590e+003,7.046539e+000
2.207554e+003,7.557083e+000
2.208518e+003,1.057974e+001
2.209483e+003,1.045030e+001
2.210447e+003,8.446609e+000
2.211411e+003,9.637466e+000
2.212375e+003,1.366982e+001
2.213340e+003,1.492018e+001
2.214304e+003,1.202786e+001
2.215268e+003,9.162170e+000
2.216232e+003,8.503006e+000
2.217197e+003,8.822510e+000
2.218161e+003,9.823059e+000
2.219125e+003,1.096547e+001
2.220089e+003,1.127232e+001
2.221053e+003,1.136554e+001
2.222018e+003,1.045586e+001
2.222982e+003,8.472946e+000
2.223946e+003,8.482361e+000
2.224910e+003,1.043243e+001
2.225875e+003,9.922470e+000
2.226839e+003,6.203644e+000
2.227803e+003,3.334686e+000
2.228767e+003,3.221481e+000
2.229731e+003,4.205429e+000
2.230696e+003,5.383987e+000
2.231660e+003,6.150345e+000
2.232624e+003,5.810623e+000
2.233588e+003,5.553680e+000
2.234553e+003,6.732391e+000
2.235517e+003,8.216675e+000
2.236481e+003,7.058517e+000
2.237445e+003,4.052734e+000
2.238410e+003,3.547913e+000
2.239374e+003,6.113037e+000
2.240338e+003,8.453720e+000
2.241302e+003,9.199188e+000
2.242267e+003,9.773773e+000
2.243231e+003,1.122508e+001
2.244195e+003,1.255917e+001
2.245159e+003,1.229482e+001
2.246124e+003,1.124530e+001
2.247088e+003,1.056323e+001
2.248052e+003,9.661301e+000
2.249016e+003,8.104630e+000
2.249980e+003,6.401352e+000
2.250945e+003,5.085663e+000
2.251909e+003,4.389862e+000
2.252873e+003,3.927200e+000
2.253837e+003,3.297104e+000
2.254802e+003,3.096695e+000
2.255766e+003,4.062317e+000
2.256730e+003,4.641357e+000
2.257694e+003,1.840012e+000
2.258658e+003,9.693909e-002
2.259623e+003,4.633896e+000
2.260587e+003,1.003110e+001
2.261551e+003,1.150656e+001
2.262515e+003,1.076045e+001
2.263480e+003,9.480804e+000
2.264444e+003,8.684830e+000
2.265408e+003,9.222839e+000
2.266372e+003,1.039307e+001
2.267337e+003,1.081668e+001
2.268301e+003,1.031189e+001
2.269265e+003,9.577606e+000
2.270229e+003,1.020857e+001
2.271194e+003,1.163164e+001
2.272158e+003,1.107855e+001
2.273122e+003,9.994461e+000
2.274086e+003,1.025134e+001
2.275051e+003,1.073296e+001
2.276015e+003,1.117133e+001
2.276979e+003,1.183400e+001
2.277943e+003,1.198509e+001
2.278907e+003,1.192244e+001
2.279872e+003,1.366156e+001
2.280836e+003,1.670743e+001
2.281800e+003,1.570169e+001
2.282764e+003,7.518860e+000
2.283729e+003,3.807098e+000
2.284693e+003,1.203517e+001
2.285657e+003,1.794621e+001
2.286621e+003,1.412376e+001
2.287585e+003,8.835892e+000
2.288550e+003,6.314011e+000
2.289514e+003,5.759064e+000
2.290478e+003,6.289291e+000
2.291442e+003,8.190308e+000
2.292407e+003,1.300453e+001
2.293371e+003,1.904156e+001
2.294335e+003,1.841278e+001
2.295299e+003,8.948364e+000
2.296264e+003,4.537186e+000
2.297228e+003,8.705353e+000
2.298192e+003,1.048682e+001
2.299156e+003,8.018265e+000
2.300121e+003,7.455765e+000
2.301085e+003,9.984818e+000
2.302049e+003,1.330370e+001
2.303013e+003,1.757204e+001
2.303978e+003,2.031215e+001
2.304942e+003,1.774312e+001
2.305906e+003,1.267557e+001
2.306870e+003,1.227208e+001
2.307834e+003,1.587117e+001
2.308799e+003,1.700528e+001
2.309763e+003,1.586366e+001
2.310727e+003,1.662918e+001
2.311691e+003,1.904924e+001
2.312656e+003,1.981380e+001
2.313620e+003,1.830905e+001
2.314584e+003,1.857545e+001
2.315548e+003,2.225314e+001
2.316512e+003,2.420146e+001
2.317477e+003,2.123009e+001
2.318441e+003,1.792368e+001
2.319405e+003,1.896773e+001
2.320369e+003,2.269894e+001
2.321334e+003,2.658507e+001
2.322298e+003,2.950316e+001
2.323262e+003,3.039479e+001
2.324226e+003,3.070015e+001
2.325191e+003,3.110768e+001
2.326155e+003,3.164830e+001
2.327119e+003,3.414114e+001
2.328083e+003,3.798195e+001
2.329048e+003,3.978236e+001
2.330012e+003,3.902419e+001
2.330976e+003,3.830911e+001
2.331940e+003,3.824954e+001
2.332905e+003,3.760982e+001
2.333869e+003,3.530981e+001
2.334833e+003,3.436017e+001
2.335797e+003,3.938858e+001
2.336761e+003,4.575044e+001
2.337726e+003,4.734760e+001
2.338690e+003,4.546684e+001
2.339654e+003,4.242157e+001
2.340618e+003,3.994901e+001
2.341583e+003,3.997345e+001
2.342547e+003,4.242479e+001
2.343511e+003,4.528935e+001
2.344475e+003,4.760338e+001
2.345439e+003,4.982169e+001
2.346404e+003,5.272838e+001
2.347368e+003,5.399118e+001
2.348332e+003,5.304074e+001
2.349296e+003,5.199936e+001
2.350261e+003,5.025677e+001
2.351225e+003,5.059055e+001
2.352189e+003,5.536037e+001
2.353153e+003,6.104047e+001
2.354118e+003,6.470558e+001
2.355082e+003,6.623625e+001
2.356046e+003,6.560817e+001
2.357010e+003,6.384424e+001
2.357975e+003,6.446214e+001
2.358939e+003,6.753123e+001
2.359903e+003,7.194431e+001
2.360867e+003,7.753784e+001
2.361832e+003,8.006595e+001
2.362796e+003,7.960713e+001
2.363760e+003,8.000304e+001
2.364724e+003,8.302826e+001
2.365688e+003,8.627664e+001
2.366653e+003,8.679579e+001
2.367617e+003,8.711401e+001
2.368581e+003,9.129672e+001
2.369545e+003,9.693187e+001
2.370510e+003,9.857080e+001
2.371474e+003,9.763737e+001
2.372438e+003,9.809433e+001
2.373402e+003,9.950745e+001
2.374366e+003,1.012133e+002
2.375331e+003,1.032660e+002
2.376295e+003,1.062158e+002
2.377259e+003,1.096432e+002
2.378223e+003,1.105880e+002
2.379188e+003,1.089391e+002
2.380152e+003,1.105029e+002
2.381116e+003,1.181303e+002
2.382080e+003,1.238130e+002
2.383045e+003,1.200675e+002
2.384009e+003,1.147567e+002
2.384973e+003,1.164192e+002
2.385937e+003,1.190369e+002
2.386902e+003,1.157700e+002
2.387866e+003,1.127736e+002
2.388830e+003,1.171294e+002
2.389794e+003,1.235963e+002
2.390759e+003,1.245392e+002
2.391723e+003,1.215511e+002
2.392687e+003,1.206431e+002
2.393651e+003,1.231834e+002
2.394615e+003,1.269009e+002
2.395580e+003,1.314405e+002
2.396544e+003,1.340097e+002
2.397508e+003,1.329129e+002
2.398472e+003,1.315531e+002
2.399437e+003,1.311954e+002
2.400401e+003,1.307326e+002
2.401365e+003,1.289135e+002
2.402329e+003,1.274039e+002
2.403293e+003,1.269731e+002
2.404258e+003,1.274524e+002
2.405222e+003,1.292777e+002
2.406186e+003,1.322741e+002
2.407150e+003,1.351883e+002
2.408115e+003,1.377032e+002
2.409079e+003,1.394317e+002
2.410043e+003,1.402796e+002
2.411007e+003,1.389369e+002
2.411972e+003,1.359814e+002
2.412936e+003,1.367112e+002
2.413900e+003,1.408620e+002
2.414864e+003,1.444235e+002
2.415829e+003,1.466224e+002
2.416793e+003,1.469562e+002
2.417757e+003,1.449935e+002
2.418721e+003,1.436950e+002
2.419686e+003,1.460146e+002
2.420650e+003,1.486986e+002
2.421614e+003,1.477128e+002
2.422578e+003,1.455587e+002
2.423542e+003,1.441216e+002
2.424507e+003,1.432420e+002
2.425471e+003,1.435738e+002
2.426435e+003,1.449661e+002
2.427399e+003,1.468288e+002
2.428364e+003,1.478474e+002
2.429328e+003,1.465563e+002
2.430292e+003,1.444079e+002
2.431256e+003,1.456391e+002
2.432220e+003,1.512992e+002
2.433185e+003,1.544248e+002
2.434149e+003,1.526049e+002
2.435113e+003,1.492187e+002
2.436077e+003,1.428350e+002
2.437042e+003,1.389903e+002
2.438006e+003,1.398406e+002
2.438970e+003,1.409535e+002
2.439934e+003,1.405448e+002
2.440899e+003,1.392509e+002
2.441863e+003,1.376720e+002
2.442827e+003,1.364981e+002
2.443791e+003,1.360491e+002
2.444756e+003,1.356372e+002
2.445720e+003,1.347159e+002
2.446684e+003,1.333841e+002
2.447648e+003,1.316343e+002
2.448613e+003,1.298365e+002
2.449577e+003,1.294229e+002
2.450541e+003,1.298437e+002
2.451505e+003,1.285995e+002
2.452469e+003,1.260026e+002
2.453434e+003,1.242982e+002
2.454398e+003,1.233330e+002
2.455362e+003,1.219092e+002
2.456326e+003,1.210790e+002
2.457291e+003,1.206171e+002
2.458255e+003,1.177798e+002
2.459219e+003,1.163533e+002
2.460183e+003,1.192384e+002
2.461147e+003,1.209012e+002
2.462112e+003,1.195431e+002
2.463076e+003,1.176066e+002
2.464040e+003,1.153598e+002
2.465004e+003,1.124074e+002
2.465969e+003,1.092774e+002
2.466933e+003,1.071480e+002
2.467897e+003,1.064272e+002
2.468861e+003,1.062446e+002
2.469826e+003,1.064374e+002
2.470790e+003,1.075075e+002
2.471754e+003,1.068041e+002
2.472718e+003,1.046572e+002
2.473683e+003,1.038112e+002
2.474647e+003,1.034879e+002
2.475611e+003,1.027232e+002
2.476575e+003,1.020513e+002
2.477540e+003,1.013876e+002
2.478504e+003,1.003813e+002
2.479468e+003,1.001093e+002
2.480432e+003,1.015998e+002
2.481396e+003,1.022261e+002
2.482361e+003,9.885315e+001
2.483325e+003,9.542503e+001
2.484289e+003,9.524811e+001
2.485253e+003,9.547137e+001
2.486218e+003,9.339412e+001
2.487182e+003,9.094101e+001
2.488146e+003,9.115382e+001
2.489110e+003,9.279251e+001
2.490074e+003,9.329721e+001
2.491039e+003,9.349113e+001
2.492003e+003,9.551881e+001
2.492967e+003,9.823094e+001
2.493931e+003,9.859442e+001
2.494896e+003,9.749225e+001
2.495860e+003,9.490437e+001
2.496824e+003,8.982909e+001
2.497788e+003,8.796791e+001
2.498753e+003,8.995291e+001
2.499717e+003,9.162399e+001
2.500681e+003,9.223955e+001
2.501645e+003,9.183754e+001
2.502610e+003,9.012840e+001
2.503574e+003,8.836591e+001
2.504538e+003,8.804303e+001
2.505502e+003,8.894453e+001
2.506467e+003,9.022777e+001
2.507431e+003,9.067589e+001
2.508395e+003,8.842252e+001
2.509359e+003,8.640390e+001
2.510323e+003,8.930705e+001
2.511288e+003,9.336047e+001
2.512252e+003,9.301447e+001
2.513216e+003,9.064897e+001
2.514180e+003,9.107426e+001
2.515145e+003,9.346039e+001
2.516109e+003,9.390268e+001
2.517073e+003,9.203391e+001
2.518037e+003,9.038210e+001
2.519001e+003,8.915352e+001
2.519966e+003,8.804068e+001
2.520930e+003,8.687877e+001
2.521894e+003,8.637102e+001
2.522858e+003,8.664346e+001
2.523823e+003,8.784097e+001
2.524787e+003,9.017253e+001
2.525751e+003,9.045233e+001
2.526715e+003,8.727228e+001
2.527680e+003,8.436534e+001
2.528644e+003,8.472502e+001
2.529608e+003,8.721667e+001
2.530572e+003,9.043828e+001
2.531537e+003,9.239833e+001
2.532501e+003,9.023523e+001
2.533465e+003,8.695776e+001
2.534429e+003,8.613234e+001
2.535394e+003,8.680750e+001
2.536358e+003,8.692154e+001
2.537322e+003,8.665034e+001
2.538286e+003,8.811452e+001
2.539250e+003,9.000435e+001
2.540215e+003,8.772803e+001
2.541179e+003,8.162242e+001
2.542143e+003,8.003329e+001
2.543107e+003,8.527766e+001
2.544072e+003,8.773203e+001
2.545036e+003,8.508907e+001
2.546000e+003,8.477232e+001
2.546964e+003,8.764761e+001
2.547928e+003,8.851022e+001
2.548893e+003,8.624626e+001
2.549857e+003,8.318892e+001
2.550821e+003,8.062433e+001
2.551785e+003,8.033780e+001
2.552750e+003,8.330008e+001
2.553714e+003,8.611523e+001
2.554678e+003,8.585403e+001
2.555642e+003,8.445636e+001
2.556607e+003,8.192235e+001
2.557571e+003,7.967117e+001
2.558535e+003,8.084064e+001
2.559499e+003,8.161270e+001
2.560464e+003,7.809229e+001
2.561428e+003,7.444054e+001
2.562392e+003,7.478183e+001
2.563356e+003,7.675006e+001
2.564321e+003,7.656137e+001
2.565285e+003,7.517786e+001
2.566249e+003,7.487968e+001
2.567213e+003,7.507114e+001
2.568177e+003,7.510840e+001
2.569142e+003,7.516243e+001
2.570106e+003,7.509636e+001
2.571070e+003,7.532498e+001
2.572034e+003,7.424991e+001
2.572999e+003,7.222412e+001
2.573963e+003,7.201527e+001
2.574927e+003,7.348064e+001
2.575891e+003,7.494308e+001
2.576855e+003,7.532155e+001
2.577820e+003,7.285991e+001
2.578784e+003,6.704822e+001
2.579748e+003,6.226266e+001
2.580712e+003,6.021468e+001
2.581677e+003,6.026480e+001
2.582641e+003,6.295818e+001
2.583605e+003,6.437531e+001
2.584569e+003,6.224631e+001
2.585534e+003,6.008582e+001
2.586498e+003,6.019887e+001
2.587462e+003,6.074557e+001
2.588426e+003,5.964226e+001
2.589391e+003,5.701320e+001
2.590355e+003,5.308716e+001
2.591319e+003,4.936543e+001
2.592283e+003,5.137666e+001
2.593248e+003,5.654721e+001
2.594212e+003,5.648450e+001
2.595176e+003,5.356729e+001
2.596140e+003,5.360832e+001
2.597104e+003,5.559680e+001
2.598069e+003,5.667818e+001
2.599033e+003,5.621159e+001
2.599997e+003,5.353627e+001
2.600961e+003,4.955698e+001
2.601926e+003,4.891696e+001
2.602890e+003,5.324022e+001
2.603854e+003,5.537953e+001
2.604818e+003,5.302272e+001
2.605782e+003,5.155330e+001
2.606747e+003,5.234621e+001
2.607711e+003,5.195773e+001
2.608675e+003,4.950714e+001
2.609639e+003,4.697766e+001
2.610604e+003,4.523949e+001
2.611568e+003,4.523851e+001
2.612532e+003,4.735242e+001
2.613496e+003,4.949576e+001
2.614461e+003,4.945816e+001
2.615425e+003,4.898616e+001
2.616389e+003,5.139078e+001
2.617353e+003,5.281577e+001
2.618318e+003,4.931488e+001
2.619282e+003,4.512561e+001
2.620246e+003,4.357298e+001
2.621210e+003,4.437769e+001
2.622175e+003,4.641296e+001
2.623139e+003,4.828885e+001
2.624103e+003,4.944937e+001
2.625067e+003,4.861104e+001
2.626031e+003,4.396461e+001
2.626996e+003,3.845187e+001
2.627960e+003,4.010744e+001
2.628924e+003,4.649402e+001
2.629888e+003,4.917784e+001
2.630853e+003,4.842308e+001
2.631817e+003,4.617358e+001
2.632781e+003,4.485765e+001
2.633745e+003,4.547659e+001
2.634709e+003,4.637520e+001
2.635674e+003,4.677406e+001
2.636638e+003,4.680063e+001
2.637602e+003,4.655055e+001
2.638566e+003,4.772423e+001
2.639531e+003,4.790182e+001
2.640495e+003,4.290671e+001
2.641459e+003,4.001988e+001
2.642423e+003,4.086264e+001
2.643388e+003,4.163281e+001
2.644352e+003,4.118524e+001
2.645316e+003,4.088074e+001
2.646280e+003,4.111603e+001
2.647245e+003,4.042564e+001
2.648209e+003,3.897470e+001
2.649173e+003,3.844881e+001
2.650137e+003,3.900227e+001
2.651102e+003,3.979851e+001
2.652066e+003,3.919501e+001
2.653030e+003,3.742699e+001
2.653994e+003,3.644815e+001
2.654958e+003,3.650241e+001
2.655923e+003,3.813123e+001
2.656887e+003,4.007588e+001
2.657851e+003,4.010468e+001
2.658815e+003,3.882304e+001
2.659780e+003,3.747720e+001
2.660744e+003,3.683107e+001
2.661708e+003,3.840201e+001
2.662672e+003,4.087616e+001
2.663636e+003,3.840904e+001
2.664601e+003,3.300285e+001
2.665565e+003,3.134737e+001
2.666529e+003,3.170366e+001
2.667493e+003,2.908681e+001
2.668458e+003,2.616528e+001
2.669422e+003,3.004468e+001
2.670386e+003,3.671201e+001
2.671350e+003,3.607005e+001
2.672315e+003,2.957887e+001
2.673279e+003,2.759210e+001
2.674243e+003,3.031587e+001
2.675207e+003,3.168948e+001
2.676172e+003,3.189500e+001
2.677136e+003,3.124141e+001
2.678100e+003,3.018073e+001
2.679064e+003,2.997903e+001
2.680029e+003,2.981778e+001
2.680993e+003,2.852483e+001
2.681957e+003,2.661813e+001
2.682921e+003,2.473425e+001
2.683885e+003,2.255228e+001
2.684850e+003,2.100888e+001
2.685814e+003,2.225652e+001
2.686778e+003,2.382387e+001
2.687742e+003,2.244299e+001
2.688707e+003,2.282808e+001
2.689671e+003,2.687375e+001
2.690635e+003,2.840587e+001
2.691599e+003,2.622536e+001
2.692563e+003,2.470966e+001
2.693528e+003,2.595076e+001
2.694492e+003,2.710147e+001
2.695456e+003,2.598656e+001
2.696420e+003,2.422981e+001
2.697385e+003,2.340065e+001
2.698349e+003,2.338820e+001
2.699313e+003,2.506252e+001
2.700277e+003,2.700089e+001
2.701242e+003,2.615509e+001
2.702206e+003,2.489449e+001
2.703170e+003,2.700891e+001
2.704134e+003,2.904352e+001
2.705099e+003,2.819327e+001
2.706063e+003,2.582874e+001
2.707027e+003,2.203656e+001
2.707991e+003,1.855156e+001
2.708956e+003,1.889825e+001
2.709920e+003,2.108821e+001
2.710884e+003,2.122533e+001
2.711848e+003,2.049730e+001
2.712813e+003,2.041287e+001
2.713777e+003,2.113805e+001
2.714741e+003,2.151141e+001
2.715705e+003,2.021097e+001
2.716669e+003,1.804025e+001
2.717634e+003,1.621858e+001
2.718598e+003,1.526315e+001
2.719562e+003,1.592064e+001
2.720526e+003,1.664975e+001
2.721490e+003,1.503639e+001
2.722455e+003,1.563776e+001
2.723419e+003,2.004138e+001
2.724383e+003,1.870589e+001
2.725347e+003,1.284645e+001
2.726312e+003,1.287596e+001
2.727276e+003,1.678258e+001
2.728240e+003,1.586620e+001
2.729204e+003,1.131104e+001
2.730169e+003,8.706039e+000
2.731133e+003,8.115143e+000
2.732097e+003,9.586746e+000
2.733061e+003,1.483388e+001
2.734026e+003,1.629391e+001
2.734990e+003,1.483609e+001
2.735954e+003,1.384583e+001
2.736918e+003,1.156932e+001
2.737883e+003,1.060608e+001
2.738847e+003,1.088405e+001
2.739811e+003,1.107422e+001
2.740775e+003,1.106570e+001
2.741740e+003,1.081992e+001
2.742704e+003,1.105191e+001
2.743668e+003,1.129315e+001
2.744632e+003,9.384674e+000
2.745596e+003,9.713379e+000
2.746561e+003,1.627429e+001
2.747525e+003,1.899426e+001
2.748489e+003,1.601511e+001
2.749453e+003,1.235974e+001
2.750417e+003,9.282990e+000
2.751382e+003,6.947464e+000
2.752346e+003,4.561310e+000
2.753310e+003,4.835876e+000
2.754274e+003,9.717911e+000
2.755239e+003,1.403979e+001
2.756203e+003,1.320335e+001
2.757167e+003,1.017918e+001
2.758131e+003,5.476883e+000
2.759096e+003,2.046127e+000
2.760060e+003,2.521011e+000
2.761024e+003,4.669388e+000
2.761988e+003,8.517960e+000
2.762953e+003,1.126543e+001
2.763917e+003,1.090698e+001
2.764881e+003,9.667953e+000
2.765845e+003,9.577972e+000
2.766810e+003,9.972824e+000
2.767774e+003,1.065497e+001
2.768738e+003,1.146078e+001
2.769702e+003,1.129260e+001
2.770667e+003,1.090373e+001
2.771631e+003,9.214905e+000
2.772595e+003,6.787613e+000
2.773559e+003,6.625351e+000
2.774523e+003,7.841263e+000
2.775488e+003,9.710144e+000
2.776452e+003,1.208388e+001
2.777416e+003,1.165115e+001
2.778380e+003,7.702454e+000
2.779344e+003,7.695892e+000
2.780309e+003,1.198232e+001
2.781273e+003,1.205838e+001
2.782237e+003,1.168687e+001
2.783201e+003,1.464154e+001
2.784166e+003,1.593913e+001
2.785130e+003,1.400479e+001
2.786094e+003,1.133556e+001
2.787058e+003,1.042554e+001
2.788023e+003,1.105128e+001
2.788987e+003,1.022856e+001
2.789951e+003,8.034637e+000
2.790915e+003,7.946030e+000
2.791880e+003,9.580505e+000
2.792844e+003,8.557037e+000
2.793808e+003,6.349487e+000
2.794772e+003,5.246155e+000
2.795737e+003,4.483826e+000
2.796701e+003,7.745911e+000
2.797665e+003,1.252219e+001
2.798629e+003,1.117920e+001
2.799594e+003,6.128052e+000
2.800558e+003,4.295959e+000
2.801522e+003,5.497330e+000
2.802486e+003,9.759247e+000
2.803450e+003,1.574213e+001
2.804415e+003,1.643689e+001
2.805379e+003,1.301257e+001
2.806343e+003,1.109657e+001
2.807307e+003,1.240176e+001
2.808271e+003,1.133014e+001
2.809236e+003,6.861755e+000
2.810200e+003,6.977783e+000
2.811164e+003,1.212276e+001
2.812128e+003,1.380179e+001
2.813093e+003,1.122693e+001
2.814057e+003,1.083295e+001
2.815021e+003,9.899231e+000
2.815985e+003,8.166077e+000
2.816950e+003,8.489716e+000
2.817914e+003,1.221211e+001
2.818878e+003,1.677209e+001
2.819842e+003,1.551421e+001
2.820807e+003,1.061792e+001
2.821771e+003,8.989212e+000
2.822735e+003,9.949097e+000
2.823699e+003,9.149521e+000
2.824664e+003,7.030624e+000
2.825628e+003,5.364120e+000
2.826592e+003,4.246460e+000
2.827556e+003,6.444458e+000
2.828521e+003,1.066165e+001
2.829485e+003,1.112143e+001
2.830449e+003,9.236359e+000
2.831413e+003,1.036462e+001
2.832377e+003,1.342863e+001
2.833342e+003,1.385611e+001
2.834306e+003,1.153481e+001
2.835270e+003,8.434723e+000
2.836234e+003,4.649826e+000
2.837198e+003,4.699371e+000
2.838163e+003,1.108113e+001
2.839127e+003,1.373206e+001
2.840091e+003,1.240521e+001
2.841055e+003,9.755844e+000
2.842020e+003,6.018631e+000
2.842984e+003,5.033615e+000
2.843948e+003,6.907394e+000
2.844912e+003,7.645309e+000
2.845877e+003,6.712921e+000
2.846841e+003,7.086472e+000
2.847805e+003,9.636322e+000
2.848769e+003,1.052249e+001
2.849734e+003,7.860931e+000
2.850698e+003,7.471069e+000
2.851662e+003,9.634613e+000
2.852626e+003,9.921951e+000
2.853591e+003,8.678894e+000
2.854555e+003,8.428162e+000
2.855519e+003,9.117233e+000
2.856483e+003,9.714905e+000
2.857448e+003,9.814682e+000
2.858412e+003,9.640167e+000
2.859376e+003,9.980331e+000
2.860340e+003,1.015639e+001
2.861304e+003,9.036972e+000
2.862269e+003,9.881302e+000
2.863233e+003,1.220271e+001
2.864197e+003,1.206705e+001
2.865161e+003,1.038481e+001
2.866125e+003,7.532425e+000
2.867090e+003,3.732773e+000
2.868054e+003,2.465744e+000
2.869018e+003,4.149963e+000
2.869982e+003,5.433121e+000
2.870947e+003,6.725204e+000
2.871911e+003,8.013382e+000
2.872875e+003,7.111633e+000
2.873839e+003,7.777374e+000
2.874804e+003,1.045293e+001
2.875768e+003,1.196588e+001
2.876732e+003,1.217101e+001
2.877696e+003,1.132767e+001
2.878661e+003,9.976974e+000
2.879625e+003,9.938232e+000
2.880589e+003,1.137302e+001
2.881553e+003,1.223248e+001
2.882518e+003,1.199615e+001
2.883482e+003,1.385683e+001
2.884446e+003,1.838284e+001
2.885410e+003,2.175774e+001
2.886375e+003,2.369919e+001
2.887339e+003,2.173849e+001
2.888303e+003,1.714066e+001
2.889267e+003,1.559776e+001
2.890231e+003,1.736177e+001
2.891196e+003,1.938017e+001
2.892160e+003,2.085583e+001
2.893124e+003,2.183032e+001
2.894088e+003,2.224854e+001
2.895052e+003,2.268350e+001
2.896017e+003,2.308490e+001
2.896981e+003,2.430635e+001
2.897945e+003,2.625783e+001
2.898909e+003,2.826497e+001
2.899874e+003,3.024040e+001
2.900838e+003,3.262929e+001
2.901802e+003,3.495810e+001
2.902766e+003,3.540376e+001
2.903731e+003,3.400278e+001
2.904695e+003,3.362988e+001
2.905659e+003,3.440762e+001
2.906623e+003,3.441336e+001
2.907588e+003,3.386203e+001
2.908552e+003,3.748405e+001
2.909516e+003,4.356799e+001
2.910480e+003,4.544025e+001
2.911445e+003,4.439861e+001
2.912409e+003,4.478960e+001
2.913373e+003,4.696367e+001
2.914337e+003,5.032259e+001
2.915302e+003,5.417096e+001
2.916266e+003,5.570079e+001
2.917230e+003,5.514604e+001
2.918194e+003,5.526843e+001
2.919158e+003,5.601070e+001
2.920123e+003,5.724257e+001
2.921087e+003,5.882813e+001
2.922051e+003,6.058824e+001
2.923015e+003,6.244446e+001
2.923979e+003,6.433742e+001
2.924944e+003,6.623537e+001
2.925908e+003,6.817291e+001
2.926872e+003,7.001514e+001
2.927836e+003,7.135077e+001
2.928801e+003,7.220570e+001
2.929765e+003,7.222578e+001
2.930729e+003,7.218573e+001
2.931693e+003,7.438457e+001
2.932658e+003,7.707281e+001
2.933622e+003,7.712064e+001
2.934586e+003,7.638753e+001
2.935550e+003,7.826257e+001
2.936515e+003,8.095598e+001
2.937479e+003,8.189233e+001
2.938443e+003,8.184976e+001
2.939407e+003,8.262549e+001
2.940372e+003,8.364513e+001
2.941336e+003,8.265245e+001
2.942300e+003,8.227696e+001
2.943264e+003,8.714645e+001
2.944229e+003,9.285107e+001
2.945193e+003,9.493779e+001
2.946157e+003,9.556882e+001
2.947121e+003,9.648405e+001
2.948085e+003,9.770625e+001
2.949050e+003,9.934319e+001
2.950014e+003,1.008105e+002
2.950978e+003,1.008173e+002
2.951942e+003,1.007232e+002
2.952906e+003,1.020948e+002
2.953871e+003,1.039390e+002
2.954835e+003,1.067017e+002
2.955799e+003,1.077130e+002
2.956763e+003,1.045898e+002
2.957728e+003,1.029923e+002
2.958692e+003,1.066071e+002
2.959656e+003,1.117236e+002
2.960620e+003,1.153726e+002
2.961585e+003,1.166763e+002
2.962549e+003,1.122499e+002
2.963513e+003,1.091606e+002
2.964477e+003,1.123658e+002
2.965442e+003,1.158649e+002
2.966406e+003,1.181255e+002
2.967370e+003,1.195011e+002
2.968334e+003,1.200813e+002
2.969299e+003,1.215306e+002
2.970263e+003,1.245391e+002
2.971227e+003,1.264463e+002
2.972191e+003,1.254420e+002
2.973156e+003,1.244128e+002
2.974120e+003,1.247314e+002
2.975084e+003,1.253109e+002
2.976048e+003,1.263310e+002
2.977012e+003,1.260291e+002
2.977977e+003,1.241934e+002
2.978941e+003,1.237375e+002
2.979905e+003,1.253736e+002
2.980869e+003,1.289797e+002
2.981833e+003,1.339566e+002
2.982798e+003,1.357142e+002
2.983762e+003,1.317565e+002
2.984726e+003,1.310054e+002
2.985690e+003,1.349438e+002
2.986655e+003,1.368318e+002
2.987619e+003,1.366405e+002
2.988583e+003,1.364076e+002
2.989547e+003,1.369039e+002
2.990512e+003,1.411135e+002
2.991476e+003,1.471320e+002
2.992440e+003,1.466982e+002
2.993404e+003,1.399706e+002
2.994369e+003,1.392940e+002
2.995333e+003,1.445941e+002
2.996297e+003,1.478761e+002
2.997261e+003,1.491276e+002
2.998226e+003,1.471061e+002
2.999190e+003,1.436844e+002
3.000154e+003,1.434261e+002
3.001118e+003,1.447032e+002
3.002083e+003,1.428647e+002
3.003047e+003,1.406207e+002
3.004011e+003,1.446375e+002
3.004975e+003,1.513159e+002
3.005939e+003,1.518078e+002
3.006904e+003,1.487243e+002
3.007868e+003,1.485445e+002
3.008832e+003,1.501580e+002
3.009796e+003,1.530136e+002
3.010760e+003,1.556246e+002
3.011725e+003,1.564606e+002
3.012689e+003,1.563734e+002
3.013653e+003,1.560508e+002
3.014617e+003,1.551769e+002
3.015582e+003,1.531232e+002
3.016546e+003,1.527068e+002
3.017510e+003,1.588537e+002
3.018474e+003,1.657191e+002
3.019439e+003,1.682803e+002
3.020403e+003,1.690740e+002
3.021367e+003,1.678770e+002
3.022331e+003,1.680873e+002
3.023296e+003,1.710782e+002
3.024260e+003,1.732017e+002
3.025224e+003,1.727964e+002
3.026188e+003,1.735943e+002
3.027153e+003,1.780807e+002
3.028117e+003,1.812771e+002
3.029081e+003,1.787456e+002
3.030045e+003,1.776224e+002
3.031010e+003,1.791998e+002
3.031974e+003,1.820034e+002
3.032938e+003,1.858777e+002
3.033902e+003,1.881141e+002
3.034866e+003,1.885827e+002
3.035831e+003,1.903308e+002
3.036795e+003,1.937316e+002
3.037759e+003,1.951408e+002
3.038723e+003,1.933896e+002
3.039688e+003,1.932000e+002
3.040652e+003,1.951117e+002
3.041616e+003,1.946535e+002
3.042580e+003,1.926418e+002
3.043544e+003,1.953423e+002
3.044509e+003,2.004352e+002
3.045473e+003,2.000960e+002
3.046437e+003,1.963945e+002
3.047401e+003,1.968129e+002
3.048366e+003,2.001671e+002
3.049330e+003,2.010851e+002
3.050294e+003,2.006024e+002
3.051258e+003,2.029788e+002
3.052223e+003,2.067531e+002
3.053187e+003,2.087858e+002
3.054151e+003,2.098078e+002
3.055115e+003,2.107297e+002
3.056080e+003,2.112399e+002
3.057044e+003,2.108509e+002
3.058008e+003,2.100037e+002
3.058972e+003,2.088502e+002
3.059937e+003,2.088853e+002
3.060901e+003,2.123304e+002
3.061865e+003,2.164946e+002
3.062829e+003,2.187500e+002
3.063793e+003,2.201694e+002
3.064758e+003,2.210622e+002
3.065722e+003,2.217225e+002
3.066686e+003,2.222178e+002
3.067650e+003,2.225682e+002
3.068615e+003,2.227827e+002
3.069579e+003,2.226219e+002
3.070543e+003,2.220061e+002
3.071507e+003,2.224200e+002
3.072471e+003,2.252363e+002
3.073436e+003,2.269279e+002
3.074400e+003,2.262390e+002
3.075364e+003,2.279539e+002
3.076328e+003,2.321751e+002
3.077293e+003,2.339769e+002
3.078257e+003,2.337021e+002
3.079221e+003,2.369584e+002
3.080185e+003,2.428296e+002
3.081150e+003,2.427646e+002
3.082114e+003,2.360734e+002
3.083078e+003,2.314555e+002
3.084042e+003,2.289894e+002
3.085007e+003,2.298894e+002
3.085971e+003,2.332161e+002
3.086935e+003,2.377285e+002
3.087899e+003,2.413843e+002
3.088864e+003,2.399920e+002
3.089828e+003,2.369975e+002
3.090792e+003,2.375149e+002
3.091756e+003,2.394679e+002
3.092720e+003,2.400207e+002
3.093685e+003,2.404224e+002
3.094649e+003,2.437242e+002
3.095613e+003,2.467711e+002
3.096577e+003,2.449461e+002
3.097542e+003,2.429604e+002
3.098506e+003,2.436199e+002
3.099470e+003,2.456353e+002
3.100434e+003,2.488661e+002
3.101398e+003,2.512914e+002
3.102363e+003,2.518799e+002
3.103327e+003,2.514721e+002
3.104291e+003,2.503756e+002
3.105255e+003,2.500015e+002
3.106220e+003,2.509228e+002
3.107184e+003,2.533052e+002
3.108148e+003,2.576966e+002
3.109112e+003,2.585999e+002
3.110077e+003,2.560023e+002
3.111041e+003,2.538743e+002
3.112005e+003,2.532658e+002
3.112969e+003,2.546851e+002
3.113934e+003,2.578069e+002
3.114898e+003,2.600286e+002
3.115862e+003,2.613059e+002
3.116826e+003,2.626370e+002
3.117791e+003,2.639360e+002
3.118755e+003,2.646561e+002
3.119719e+003,2.651547e+002
3.120683e+003,2.660846e+002
3.121647e+003,2.672228e+002
3.122612e+003,2.684834e+002
3.123576e+003,2.692709e+002
3.124540e+003,2.687775e+002
3.125504e+003,2.683538e+002
3.126469e+003,2.701505e+002
3.127433e+003,2.724799e+002
3.128397e+003,2.726885e+002
3.129361e+003,2.735916e+002
3.130325e+003,2.794136e+002
3.131290e+003,2.813727e+002
3.132254e+003,2.761615e+002
3.133218e+003,2.733062e+002
3.134182e+003,2.763156e+002
3.135147e+003,2.800980e+002
3.136111e+003,2.821677e+002
3.137075e+003,2.841995e+002
3.138039e+003,2.878379e+002
3.139004e+003,2.876474e+002
3.139968e+003,2.828279e+002
3.140932e+003,2.823173e+002
3.141896e+003,2.859410e+002
3.142861e+003,2.905414e+002
3.143825e+003,2.949475e+002
3.144789e+003,2.984209e+002
3.145753e+003,3.001501e+002
3.146718e+003,2.978279e+002
3.147682e+003,2.933761e+002
3.148646e+003,2.939309e+002
3.149610e+003,2.973093e+002
3.150574e+003,2.969596e+002
3.151539e+003,2.962316e+002
3.152503e+003,3.011900e+002
3.153467e+003,3.052283e+002
3.154431e+003,3.021259e+002
3.155396e+003,2.982481e+002
3.156360e+003,2.977067e+002
3.157324e+003,2.995516e+002
3.158288e+003,3.033972e+002
3.159252e+003,3.065291e+002
3.160217e+003,3.058099e+002
3.161181e+003,3.060653e+002
3.162145e+003,3.089168e+002
3.163109e+003,3.105107e+002
3.164074e+003,3.104216e+002
3.165038e+003,3.113955e+002
3.166002e+003,3.137093e+002
3.166966e+003,3.154570e+002
3.167931e+003,3.161801e+002
3.168895e+003,3.165587e+002
3.169859e+003,3.167057e+002
3.170823e+003,3.164756e+002
3.171788e+003,3.162649e+002
3.172752e+003,3.198822e+002
3.173716e+003,3.241674e+002
3.174680e+003,3.211577e+002
3.175645e+003,3.165557e+002
3.176609e+003,3.201600e+002
3.177573e+003,3.255373e+002
3.178537e+003,3.263008e+002
3.179501e+003,3.245345e+002
3.180466e+003,3.222710e+002
3.181430e+003,3.208793e+002
3.182394e+003,3.227300e+002
3.183358e+003,3.243052e+002
3.184323e+003,3.240280e+002
3.185287e+003,3.231830e+002
3.186251e+003,3.220459e+002
3.187215e+003,3.218338e+002
3.188179e+003,3.229462e+002
3.189144e+003,3.253585e+002
3.190108e+003,3.290746e+002
3.191072e+003,3.302354e+002
3.192036e+003,3.279377e+002
3.193001e+003,3.259591e+002
3.193965e+003,3.244573e+002
3.194929e+003,3.246353e+002
3.195893e+003,3.262675e+002
3.196858e+003,3.301287e+002
3.197822e+003,3.338336e+002
3.198786e+003,3.319192e+002
3.199750e+003,3.288427e+002
3.200715e+003,3.313783e+002
3.201679e+003,3.356121e+002
3.202643e+003,3.335180e+002
3.203607e+003,3.306089e+002
3.204572e+003,3.323311e+002
3.205536e+003,3.355151e+002
3.206500e+003,3.396225e+002
3.207464e+003,3.415926e+002
3.208428e+003,3.404737e+002
3.209393e+003,3.384275e+002
3.210357e+003,3.366390e+002
3.211321e+003,3.374670e+002
3.212285e+003,3.427775e+002
3.213250e+003,3.447823e+002
3.214214e+003,3.424274e+002
3.215178e+003,3.407002e+002
3.216142e+003,3.398032e+002
3.217106e+003,3.397036e+002
3.218071e+003,3.408068e+002
3.219035e+003,3.456307e+002
3.219999e+003,3.509301e+002
3.220963e+003,3.498564e+002
3.221928e+003,3.462184e+002
3.222892e+003,3.470356e+002
3.223856e+003,3.501843e+002
3.224820e+003,3.532944e+002
3.225785e+003,3.553182e+002
3.226749e+003,3.542078e+002
3.227713e+003,3.537774e+002
3.228677e+003,3.555344e+002
3.229642e+003,3.571436e+002
3.230606e+003,3.577030e+002
3.231570e+003,3.582508e+002
3.232534e+003,3.592719e+002
3.233499e+003,3.588181e+002
3.234463e+003,3.550129e+002
3.235427e+003,3.548460e+002
3.236391e+003,3.581500e+002
3.237355e+003,3.605341e+002
3.238320e+003,3.620292e+002
3.239284e+003,3.636179e+002
3.240248e+003,3.652136e+002
3.241212e+003,3.668109e+002
3.242177e+003,3.674178e+002
3.243141e+003,3.649810e+002
3.244105e+003,3.624755e+002
3.245069e+003,3.667507e+002
3.246033e+003,3.721519e+002
3.246998e+003,3.724965e+002
3.247962e+003,3.725087e+002
3.248926e+003,3.744988e+002
3.249890e+003,3.761979e+002
3.250855e+003,3.768757e+002
3.251819e+003,3.755392e+002
3.252783e+003,3.722823e+002
3.253747e+003,3.721435e+002
3.254712e+003,3.776476e+002
3.255676e+003,3.808576e+002
3.256640e+003,3.814024e+002
3.257604e+003,3.807661e+002
3.258569e+003,3.795997e+002
3.259533e+003,3.796490e+002
3.260497e+003,3.806959e+002
3.261461e+003,3.822679e+002
3.262426e+003,3.842078e+002
3.263390e+003,3.865560e+002
3.264354e+003,3.885065e+002
3.265318e+003,3.886022e+002
3.266282e+003,3.885270e+002
3.267247e+003,3.899767e+002
3.268211e+003,3.921388e+002
3.269175e+003,3.956620e+002
3.270139e+003,3.961685e+002
3.271104e+003,3.929893e+002
3.272068e+003,3.940283e+002
3.273032e+003,4.005559e+002
3.273996e+003,4.057052e+002
3.274960e+003,4.073178e+002
3.275925e+003,4.065313e+002
3.276889e+003,4.036200e+002
3.277853e+003,4.031013e+002
3.278817e+003,4.038448e+002
3.279782e+003,4.014548e+002
3.280746e+003,3.993817e+002
3.281710e+003,4.041304e+002
3.282674e+003,4.104167e+002
3.283639e+003,4.139956e+002
3.284603e+003,4.140065e+002
3.285567e+003,4.089875e+002
3.286531e+003,4.045497e+002
3.287496e+003,4.057324e+002
3.288460e+003,4.088935e+002
3.289424e+003,4.144976e+002
3.290388e+003,4.154739e+002
3.291353e+003,4.117638e+002
3.292317e+003,4.128872e+002
3.293281e+003,4.182867e+002
3.294245e+003,4.179188e+002
3.295209e+003,4.120208e+002
3.296174e+003,4.118832e+002
3.297138e+003,4.158951e+002
3.298102e+003,4.169776e+002
3.299066e+003,4.164232e+002
3.300031e+003,4.154033e+002
3.300995e+003,4.156147e+002
3.301959e+003,4.202377e+002
3.302923e+003,4.240643e+002
3.303887e+003,4.248254e+002
3.304852e+003,4.246240e+002
3.305816e+003,4.246843e+002
3.306780e+003,4.245502e+002
3.307744e+003,4.235735e+002
3.308709e+003,4.242658e+002
3.309673e+003,4.272263e+002
3.310637e+003,4.259850e+002
3.311601e+003,4.223740e+002
3.312566e+003,4.267430e+002
3.313530e+003,4.352152e+002
3.314494e+003,4.365608e+002
3.315458e+003,4.337964e+002
3.316423e+003,4.333930e+002
3.317387e+003,4.342004e+002
3.318351e+003,4.342567e+002
3.319315e+003,4.343399e+002
3.320280e+003,4.356608e+002
3.321244e+003,4.365619e+002
3.322208e+003,4.364858e+002
3.323172e+003,4.354196e+002
3.324136e+003,4.336931e+002
3.325101e+003,4.352615e+002
3.326065e+003,4.406349e+002
3.327029e+003,4.438273e+002
3.327993e+003,4.434534e+002
3.328958e+003,4.441194e+002
3.329922e+003,4.456467e+002
3.330886e+003,4.475268e+002
3.331850e+003,4.485045e+002
3.332814e+003,4.439849e+002
3.333779e+003,4.405199e+002
3.334743e+003,4.455650e+002
3.335707e+003,4.506439e+002
3.336671e+003,4.495392e+002
3.337636e+003,4.490752e+002
3.338600e+003,4.559040e+002
3.339564e+003,4.607241e+002
3.340528e+003,4.575860e+002
3.341493e+003,4.564875e+002
3.342457e+003,4.577406e+002
3.343421e+003,4.577235e+002
3.344385e+003,4.569217e+002
3.345350e+003,4.590685e+002
3.346314e+003,4.627725e+002
3.347278e+003,4.626736e+002
3.348242e+003,4.609876e+002
3.349207e+003,4.630570e+002
3.350171e+003,4.664720e+002
3.351135e+003,4.673339e+002
3.352099e+003,4.680080e+002
3.353063e+003,4.709172e+002
3.354028e+003,4.716061e+002
3.354992e+003,4.689379e+002
3.355956e+003,4.688253e+002
3.356920e+003,4.730287e+002
3.357885e+003,4.782766e+002
3.358849e+003,4.834853e+002
3.359813e+003,4.829803e+002
3.360777e+003,4.771379e+002
3.361741e+003,4.775341e+002
3.362706e+003,4.812974e+002
3.363670e+003,4.829913e+002
3.364634e+003,4.834691e+002
3.365598e+003,4.835537e+002
3.366563e+003,4.847584e+002
3.367527e+003,4.882467e+002
3.368491e+003,4.908227e+002
3.369455e+003,4.893822e+002
3.370420e+003,4.883902e+002
3.371384e+003,4.910396e+002
3.372348e+003,4.920100e+002
3.373312e+003,4.912233e+002
3.374277e+003,4.921279e+002
3.375241e+003,4.943658e+002
3.376205e+003,4.953000e+002
3.377169e+003,4.956983e+002
3.378134e+003,4.984676e+002
3.379098e+003,5.020606e+002
3.380062e+003,5.037513e+002
3.381026e+003,5.038558e+002
3.381990e+003,5.015003e+002
3.382955e+003,4.998490e+002
3.383919e+003,5.010758e+002
3.384883e+003,5.018699e+002
3.385847e+003,5.015120e+002
3.386812e+003,4.998220e+002
3.387776e+003,4.974326e+002
3.388740e+003,4.982826e+002
3.389704e+003,5.030868e+002
3.390668e+003,5.066881e+002
3.391633e+003,5.088259e+002
3.392597e+003,5.061686e+002
3.393561e+003,5.028160e+002
3.394525e+003,5.063062e+002
3.395490e+003,5.102812e+002
3.396454e+003,5.098963e+002
3.397418e+003,5.082830e+002
3.398382e+003,5.072465e+002
3.399347e+003,5.087962e+002
3.400311e+003,5.150131e+002
3.401275e+003,5.179838e+002
3.402239e+003,5.154139e+002
3.403204e+003,5.148981e+002
3.404168e+003,5.160380e+002
3.405132e+003,5.164861e+002
3.406096e+003,5.162500e+002
3.407061e+003,5.160328e+002
3.408025e+003,5.150350e+002
3.408989e+003,5.118929e+002
3.409953e+003,5.097789e+002
3.410917e+003,5.129836e+002
3.411882e+003,5.175786e+002
3.412846e+003,5.222473e+002
3.413810e+003,5.240874e+002
3.414774e+003,5.226009e+002
3.415739e+003,5.240654e+002
3.416703e+003,5.280022e+002
3.417667e+003,5.272307e+002
3.418631e+003,5.228943e+002
3.419595e+003,5.240836e+002
3.420560e+003,5.281836e+002
3.421524e+003,5.273161e+002
3.422488e+003,5.244536e+002
3.423452e+003,5.240126e+002
3.424417e+003,5.244307e+002
3.425381e+003,5.249951e+002
3.426345e+003,5.254409e+002
3.427309e+003,5.257258e+002
3.428274e+003,5.260038e+002
3.429238e+003,5.265416e+002
3.430202e+003,5.293589e+002
3.431166e+003,5.346592e+002
3.432131e+003,5.360621e+002
3.433095e+003,5.349047e+002
3.434059e+003,5.372471e+002
3.435023e+003,5.409476e+002
3.435988e+003,5.436099e+002
3.436952e+003,5.453803e+002
3.437916e+003,5.467343e+002
3.438880e+003,5.451226e+002
3.439844e+003,5.391083e+002
3.440809e+003,5.361267e+002
3.441773e+003,5.421685e+002
3.442737e+003,5.420420e+002
3.443701e+003,5.348924e+002
3.444666e+003,5.354675e+002
3.445630e+003,5.411829e+002
3.446594e+003,5.437267e+002
3.447558e+003,5.453862e+002
3.448522e+003,5.513555e+002
3.449487e+003,5.567653e+002
3.450451e+003,5.566840e+002
3.451415e+003,5.548494e+002
3.452379e+003,5.528311e+002
3.453344e+003,5.550401e+002
3.454308e+003,5.643958e+002
3.455272e+003,5.677928e+002
3.456236e+003,5.654512e+002
3.457201e+003,5.649447e+002
3.458165e+003,5.666637e+002
3.459129e+003,5.683901e+002
3.460093e+003,5.695648e+002
3.461058e+003,5.694921e+002
3.462022e+003,5.693074e+002
3.462986e+003,5.717760e+002
3.463950e+003,5.735772e+002
3.464915e+003,5.702307e+002
3.465879e+003,5.710682e+002
3.466843e+003,5.773442e+002
3.467807e+003,5.821128e+002
3.468771e+003,5.838824e+002
3.469736e+003,5.842994e+002
3.470700e+003,5.835532e+002
3.471664e+003,5.805023e+002
3.472628e+003,5.774818e+002
3.473593e+003,5.831501e+002
3.474557e+003,5.912311e+002
3.475521e+003,5.957650e+002
3.476485e+003,5.984937e+002
3.477449e+003,6.003694e+002
3.478414e+003,5.985922e+002
3.479378e+003,5.931674e+002
3.480342e+003,5.928666e+002
3.481306e+003,6.004152e+002
3.482271e+003,6.019364e+002
3.483235e+003,5.981445e+002
3.484199e+003,6.011280e+002
3.485163e+003,6.060677e+002
3.486128e+003,6.034943e+002
3.487092e+003,6.013156e+002
3.488056e+003,6.057631e+002
3.489020e+003,6.091469e+002
3.489985e+003,6.075969e+002
3.490949e+003,6.079515e+002
3.491913e+003,6.145521e+002
3.492877e+003,6.158934e+002
3.493842e+003,6.110329e+002
3.494806e+003,6.130504e+002
3.495770e+003,6.186984e+002
3.496734e+003,6.187875e+002
3.497698e+003,6.179296e+002
3.498663e+003,6.225590e+002
3.499627e+003,6.279317e+002
3.500591e+003,0.000000e+000
