9.974011e+001,5.163636e+002
1.007043e+002,5.155522e+002
1.016686e+002,5.160918e+002
1.026328e+002,5.180229e+002
1.035970e+002,5.185463e+002
1.045613e+002,5.179592e+002
1.055255e+002,5.164750e+002
1.064897e+002,5.143472e+002
1.074540e+002,5.110721e+002
1.084182e+002,5.073645e+002
1.093824e+002,5.020964e+002
1.103467e+002,4.955894e+002
1.113109e+002,4.900738e+002
1.122751e+002,4.902329e+002
1.132394e+002,4.920743e+002
1.142036e+002,4.935323e+002
1.151678e+002,4.933111e+002
1.161321e+002,4.917195e+002
1.170963e+002,4.909032e+002
1.180605e+002,4.900895e+002
1.190248e+002,4.881133e+002
1.199890e+002,4.839022e+002
1.209532e+002,4.772980e+002
1.219175e+002,4.735106e+002
1.228817e+002,4.735721e+002
1.238459e+002,4.757381e+002
1.248102e+002,4.766256e+002
1.257744e+002,4.745049e+002
1.267386e+002,4.723950e+002
1.277029e+002,4.700989e+002
1.286671e+002,4.676127e+002
1.296313e+002,4.651676e+002
1.305956e+002,4.640875e+002
1.315598e+002,4.627481e+002
1.325240e+002,4.601956e+002
1.334883e+002,4.562440e+002
1.344525e+002,4.522231e+002
1.354167e+002,4.506188e+002
1.363810e+002,4.504416e+002
1.373452e+002,4.511311e+002
1.383094e+002,4.522636e+002
1.392737e+002,4.541497e+002
1.402379e+002,4.533116e+002
1.412021e+002,4.483675e+002
1.421664e+002,4.417925e+002
1.431306e+002,4.373475e+002
1.440948e+002,4.369617e+002
1.450591e+002,4.374890e+002
1.460233e+002,4.394798e+002
1.469875e+002,4.419751e+002
1.479518e+002,4.429287e+002
1.489160e+002,4.381147e+002
1.498802e+002,4.329318e+002
1.508445e+002,4.299355e+002
1.518087e+002,4.298307e+002
1.527729e+002,4.313473e+002
1.537372e+002,4.308197e+002
1.547014e+002,4.285798e+002
1.556656e+002,4.250711e+002
1.566299e+002,4.206845e+002
1.575941e+002,4.156443e+002
1.585583e+002,4.130858e+002
1.595226e+002,4.136159e+002
1.604868e+002,4.152464e+002
1.614510e+002,4.160358e+002
1.624153e+002,4.151728e+002
1.633795e+002,4.131664e+002
1.643438e+002,4.097174e+002
1.653080e+002,4.059937e+002
1.662722e+002,4.035050e+002
1.672365e+002,4.038238e+002
1.682007e+002,4.046308e+002
1.691649e+002,4.054330e+002
1.701292e+002,4.060783e+002
1.710934e+002,4.064961e+002
1.720576e+002,4.062123e+002
1.730219e+002,4.051873e+002
1.739861e+002,4.031336e+002
1.749503e+002,3.997475e+002
1.759146e+002,3.947907e+002
1.768788e+002,3.907218e+002
1.778430e+002,3.882772e+002
1.788073e+002,3.873698e+002
1.797715e+002,3.886849e+002
1.807357e+002,3.936125e+002
1.817000e+002,3.962741e+002
1.826642e+002,3.938873e+002
1.836284e+002,3.900550e+002
1.845927e+002,3.877511e+002
1.855569e+002,3.894339e+002
1.865211e+002,3.901581e+002
1.874854e+002,3.871488e+002
1.884496e+002,3.823299e+002
1.894138e+002,3.779689e+002
1.903781e+002,3.769407e+002
1.913423e+002,3.784140e+002
1.923065e+002,3.792126e+002
1.932708e+002,3.787982e+002
1.942350e+002,3.773516e+002
1.951992e+002,3.762657e+002
1.961635e+002,3.764795e+002
1.971277e+002,3.764824e+002
1.980919e+002,3.759945e+002
1.990562e+002,3.750673e+002
2.000204e+002,3.743462e+002
2.009846e+002,3.736980e+002
2.019489e+002,3.731541e+002
2.029131e+002,3.729182e+002
2.038773e+002,3.730903e+002
2.048416e+002,3.732608e+002
2.058058e+002,3.732803e+002
2.067700e+002,3.728898e+002
2.077343e+002,3.716184e+002
2.086985e+002,3.691409e+002
2.096627e+002,3.659766e+002
2.106270e+002,3.642123e+002
2.115912e+002,3.636398e+002
2.125554e+002,3.636671e+002
2.135197e+002,3.636213e+002
2.144839e+002,3.634765e+002
2.154481e+002,3.623635e+002
2.164124e+002,3.600106e+002
2.173766e+002,3.572575e+002
2.183408e+002,3.552876e+002
2.193051e+002,3.543364e+002
2.202693e+002,3.540839e+002
2.212335e+002,3.546651e+002
2.221978e+002,3.556809e+002
2.231620e+002,3.565262e+002
2.241262e+002,3.569355e+002
2.250904e+002,3.574609e+002
2.260547e+002,3.578633e+002
2.270189e+002,3.580172e+002
2.279831e+002,3.579359e+002
2.289474e+002,3.586549e+002
2.299116e+002,3.601962e+002
2.308758e+002,3.608370e+002
2.318401e+002,3.597925e+002
2.328043e+002,3.570257e+002
2.337685e+002,3.560738e+002
2.347328e+002,3.571905e+002
2.356970e+002,3.579761e+002
2.366612e+002,3.574838e+002
2.376255e+002,3.555947e+002
2.385897e+002,3.541618e+002
2.395539e+002,3.542830e+002
2.405182e+002,3.546934e+002
2.414824e+002,3.544623e+002
2.424466e+002,3.529370e+002
2.434109e+002,3.513511e+002
2.443751e+002,3.513320e+002
2.453393e+002,3.520192e+002
2.463036e+002,3.523763e+002
2.472678e+002,3.513449e+002
2.482320e+002,3.491336e+002
2.491963e+002,3.484715e+002
2.501605e+002,3.493236e+002
2.511247e+002,3.510230e+002
2.520890e+002,3.526199e+002
2.530532e+002,3.541836e+002
2.540174e+002,3.553698e+002
2.549817e+002,3.565901e+002
2.559459e+002,3.577931e+002
2.569102e+002,3.586035e+002
2.578744e+002,3.572921e+002
2.588386e+002,3.557751e+002
2.598029e+002,3.558315e+002
2.607671e+002,3.571979e+002
2.617313e+002,3.586331e+002
2.626956e+002,3.575137e+002
2.636598e+002,3.557619e+002
2.646240e+002,3.558052e+002
2.655883e+002,3.578614e+002
2.665525e+002,3.610120e+002
2.675167e+002,3.620622e+002
2.684810e+002,3.609760e+002
2.694452e+002,3.598909e+002
2.704094e+002,3.590255e+002
2.713737e+002,3.583311e+002
2.723379e+002,3.589434e+002
2.733021e+002,3.623185e+002
2.742664e+002,3.649232e+002
2.752306e+002,3.654037e+002
2.761948e+002,3.635007e+002
2.771591e+002,3.612954e+002
2.781233e+002,3.601659e+002
2.790875e+002,3.599538e+002
2.800518e+002,3.606737e+002
2.810160e+002,3.622037e+002
2.819802e+002,3.641288e+002
2.829445e+002,3.653087e+002
2.839087e+002,3.660423e+002
2.848729e+002,3.671655e+002
2.858372e+002,3.694698e+002
2.868014e+002,3.736099e+002
2.877656e+002,3.754662e+002
2.887299e+002,3.736156e+002
2.896941e+002,3.705319e+002
2.906583e+002,3.682332e+002
2.916226e+002,3.675481e+002
2.925868e+002,3.671575e+002
2.935510e+002,3.666069e+002
2.945153e+002,3.661334e+002
2.954795e+002,3.658291e+002
2.964437e+002,3.655907e+002
2.974080e+002,3.653840e+002
2.983722e+002,3.655880e+002
2.993364e+002,3.662827e+002
3.003007e+002,3.674783e+002
3.012649e+002,3.691123e+002
3.022291e+002,3.709433e+002
3.031934e+002,3.719608e+002
3.041576e+002,3.722309e+002
3.051218e+002,3.720225e+002
3.060861e+002,3.716040e+002
3.070503e+002,3.697081e+002
3.080145e+002,3.683656e+002
3.089788e+002,3.682096e+002
3.099430e+002,3.691032e+002
3.109072e+002,3.707597e+002
3.118715e+002,3.741528e+002
3.128357e+002,3.771824e+002
3.137999e+002,3.780565e+002
3.147642e+002,3.771574e+002
3.157284e+002,3.757200e+002
3.166926e+002,3.758532e+002
3.176569e+002,3.770608e+002
3.186211e+002,3.773307e+002
3.195853e+002,3.765341e+002
3.205496e+002,3.754626e+002
3.215138e+002,3.762789e+002
3.224780e+002,3.798037e+002
3.234423e+002,3.823640e+002
3.244065e+002,3.834967e+002
3.253707e+002,3.834951e+002
3.263350e+002,3.833419e+002
3.272992e+002,3.830906e+002
3.282634e+002,3.833065e+002
3.292277e+002,3.842321e+002
3.301919e+002,3.856187e+002
3.311561e+002,3.868090e+002
3.321204e+002,3.870793e+002
3.330846e+002,3.866790e+002
3.340488e+002,3.853187e+002
3.350131e+002,3.832856e+002
3.359773e+002,3.813251e+002
3.369415e+002,3.814792e+002
3.379058e+002,3.835119e+002
3.388700e+002,3.856532e+002
3.398342e+002,3.876465e+002
3.407985e+002,3.894272e+002
3.417627e+002,3.903273e+002
3.427269e+002,3.883267e+002
3.436912e+002,3.867695e+002
3.446554e+002,3.866986e+002
3.456196e+002,3.880998e+002
3.465839e+002,3.896221e+002
3.475481e+002,3.907574e+002
3.485123e+002,3.920815e+002
3.494765e+002,3.935272e+002
3.504408e+002,3.949002e+002
3.514050e+002,3.959600e+002
3.523692e+002,3.970257e+002
3.533335e+002,3.979390e+002
3.542977e+002,3.981204e+002
3.552619e+002,3.975564e+002
3.562262e+002,3.966971e+002
3.571904e+002,3.971153e+002
3.581546e+002,3.987521e+002
3.591189e+002,3.999983e+002
3.600831e+002,4.001591e+002
3.610473e+002,3.991945e+002
3.620116e+002,3.982577e+002
3.629758e+002,3.975451e+002
3.639400e+002,3.973764e+002
3.649043e+002,3.982558e+002
3.658685e+002,3.999761e+002
3.668327e+002,4.013191e+002
3.677970e+002,4.007675e+002
3.687612e+002,4.000093e+002
3.697254e+002,3.996444e+002
3.706897e+002,3.998592e+002
3.716539e+002,4.004833e+002
3.726181e+002,4.011467e+002
3.735824e+002,4.015316e+002
3.745466e+002,4.017470e+002
3.755108e+002,4.019955e+002
3.764751e+002,4.024727e+002
3.774393e+002,4.032215e+002
3.784035e+002,4.043074e+002
3.793678e+002,4.051086e+002
3.803320e+002,4.057609e+002
3.812962e+002,4.063145e+002
3.822605e+002,4.064865e+002
3.832247e+002,4.053324e+002
3.841889e+002,4.042271e+002
3.851532e+002,4.032818e+002
3.861174e+002,4.026559e+002
3.870816e+002,4.026104e+002
3.880459e+002,4.043779e+002
3.890101e+002,4.065875e+002
3.899743e+002,4.075612e+002
3.909386e+002,4.071104e+002
3.919028e+002,4.059997e+002
3.928670e+002,4.064147e+002
3.938313e+002,4.083627e+002
3.947955e+002,4.100031e+002
3.957597e+002,4.117189e+002
3.967240e+002,4.133090e+002
3.976882e+002,4.132788e+002
3.986524e+002,4.086393e+002
3.996167e+002,4.055761e+002
4.005809e+002,4.054108e+002
4.015451e+002,4.072915e+002
4.025094e+002,4.090255e+002
4.034736e+002,4.094474e+002
4.044378e+002,4.095830e+002
4.054021e+002,4.093508e+002
4.063663e+002,4.088633e+002
4.073305e+002,4.084320e+002
4.082948e+002,4.087424e+002
4.092590e+002,4.098731e+002
4.102232e+002,4.118354e+002
4.111875e+002,4.149773e+002
4.121517e+002,4.182432e+002
4.131159e+002,4.192117e+002
4.140802e+002,4.159352e+002
4.150444e+002,4.142796e+002
4.160086e+002,4.141432e+002
4.169729e+002,4.153631e+002
4.179371e+002,4.179301e+002
4.189013e+002,4.228257e+002
4.198656e+002,4.255784e+002
4.208298e+002,4.243499e+002
4.217940e+002,4.208047e+002
4.227583e+002,4.172468e+002
4.237225e+002,4.158782e+002
4.246867e+002,4.166752e+002
4.256510e+002,4.171436e+002
4.266152e+002,4.170948e+002
4.275794e+002,4.171483e+002
4.285437e+002,4.182931e+002
4.295079e+002,4.211484e+002
4.304721e+002,4.233183e+002
4.314364e+002,4.252374e+002
4.324006e+002,4.269388e+002
4.333648e+002,4.281518e+002
4.343291e+002,4.282123e+002
4.352933e+002,4.278531e+002
4.362575e+002,4.273469e+002
4.372218e+002,4.269254e+002
4.381860e+002,4.266739e+002
4.391502e+002,4.266093e+002
4.401145e+002,4.270837e+002
4.410787e+002,4.292141e+002
4.420429e+002,4.323137e+002
4.430072e+002,4.353269e+002
4.439714e+002,4.373595e+002
4.449356e+002,4.380273e+002
4.458999e+002,4.369219e+002
4.468641e+002,4.340163e+002
4.478283e+002,4.315221e+002
4.487926e+002,4.310923e+002
4.497568e+002,4.333293e+002
4.507210e+002,4.355364e+002
4.516853e+002,4.363748e+002
4.526495e+002,4.366422e+002
4.536137e+002,4.369490e+002
4.545780e+002,4.374781e+002
4.555422e+002,4.376160e+002
4.565064e+002,4.364374e+002
4.574707e+002,4.354418e+002
4.584349e+002,4.352678e+002
4.593991e+002,4.357871e+002
4.603634e+002,4.363036e+002
4.613276e+002,4.357850e+002
4.622918e+002,4.345933e+002
4.632561e+002,4.331600e+002
4.642203e+002,4.314071e+002
4.651845e+002,4.296491e+002
4.661488e+002,4.289625e+002
4.671130e+002,4.301584e+002
4.680772e+002,4.309131e+002
4.690415e+002,4.319508e+002
4.700057e+002,4.328154e+002
4.709699e+002,4.321772e+002
4.719342e+002,4.274695e+002
4.728984e+002,4.238082e+002
4.738626e+002,4.243600e+002
4.748269e+002,4.271949e+002
4.757911e+002,4.294422e+002
4.767553e+002,4.284422e+002
4.777196e+002,4.256930e+002
4.786838e+002,4.252297e+002
4.796480e+002,4.263218e+002
4.806123e+002,4.269283e+002
4.815765e+002,4.249986e+002
4.825407e+002,4.199082e+002
4.835050e+002,4.173823e+002
4.844692e+002,4.190009e+002
4.854334e+002,4.212342e+002
4.863977e+002,4.211296e+002
4.873619e+002,4.174158e+002
4.883261e+002,4.138117e+002
4.892904e+002,4.128446e+002
4.902546e+002,4.132710e+002
4.912188e+002,4.144403e+002
4.921831e+002,4.157588e+002
4.931473e+002,4.166045e+002
4.941115e+002,4.157669e+002
4.950758e+002,4.142957e+002
4.960400e+002,4.133457e+002
4.970042e+002,4.134285e+002
4.979685e+002,4.143287e+002
4.989327e+002,4.145469e+002
4.998969e+002,4.130065e+002
5.008612e+002,4.113458e+002
5.018254e+002,4.092910e+002
5.027896e+002,4.071649e+002
5.037539e+002,4.062224e+002
5.047181e+002,4.089452e+002
5.056823e+002,4.112971e+002
5.066466e+002,4.121992e+002
5.076108e+002,4.121188e+002
5.085750e+002,4.116911e+002
5.095393e+002,4.108612e+002
5.105035e+002,4.099666e+002
5.114677e+002,4.104536e+002
5.124320e+002,4.120516e+002
5.133962e+002,4.136091e+002
5.143605e+002,4.137939e+002
5.153247e+002,4.122415e+002
5.162889e+002,4.123725e+002
5.172532e+002,4.145920e+002
5.182174e+002,4.180675e+002
5.191816e+002,4.223678e+002
5.201459e+002,4.275015e+002
5.211101e+002,4.323254e+002
5.220743e+002,4.369890e+002
5.230386e+002,4.406738e+002
5.240028e+002,4.429097e+002
5.249670e+002,4.442458e+002
5.259313e+002,4.467153e+002
5.268955e+002,4.525716e+002
5.278597e+002,4.583776e+002
5.288240e+002,4.615781e+002
5.297882e+002,4.622847e+002
5.307524e+002,4.626287e+002
5.317167e+002,4.669139e+002
5.326809e+002,4.762912e+002
5.336451e+002,4.849357e+002
5.346094e+002,4.916395e+002
5.355736e+002,4.963754e+002
5.365378e+002,4.996088e+002
5.375021e+002,5.006760e+002
5.384663e+002,5.037630e+002
5.394305e+002,5.095335e+002
5.403948e+002,5.166839e+002
5.413590e+002,5.243141e+002
5.423232e+002,5.321264e+002
5.432875e+002,5.380657e+002
5.442517e+002,5.409717e+002
5.452159e+002,5.432897e+002
5.461802e+002,5.466697e+002
5.471444e+002,5.514865e+002
5.481086e+002,5.562641e+002
5.490729e+002,5.578281e+002
5.500371e+002,5.576602e+002
5.510013e+002,5.574618e+002
5.519656e+002,5.577147e+002
5.529298e+002,5.583624e+002
5.538940e+002,5.593149e+002
5.548583e+002,5.591485e+002
5.558225e+002,5.589247e+002
5.567867e+002,5.600031e+002
5.577510e+002,5.615203e+002
5.587152e+002,5.615186e+002
5.596794e+002,5.587587e+002
5.606437e+002,5.555607e+002
5.616079e+002,5.523663e+002
5.625721e+002,5.494380e+002
5.635364e+002,5.473464e+002
5.645006e+002,5.466044e+002
5.654648e+002,5.462510e+002
5.664291e+002,5.432150e+002
5.673933e+002,5.387283e+002
5.683575e+002,5.345543e+002
5.693218e+002,5.308494e+002
5.702860e+002,5.264935e+002
5.712502e+002,5.239116e+002
5.722145e+002,5.264554e+002
5.731787e+002,5.272571e+002
5.741429e+002,5.242426e+002
5.751072e+002,5.181902e+002
5.760714e+002,5.120429e+002
5.770356e+002,5.060400e+002
5.779999e+002,5.018994e+002
5.789641e+002,5.007463e+002
5.799283e+002,5.014195e+002
5.808926e+002,5.020347e+002
5.818568e+002,5.008754e+002
5.828210e+002,4.976166e+002
5.837853e+002,4.925631e+002
5.847495e+002,4.859228e+002
5.857137e+002,4.796142e+002
5.866780e+002,4.755279e+002
5.876422e+002,4.742737e+002
5.886064e+002,4.727590e+002
5.895707e+002,4.713888e+002
5.905349e+002,4.697093e+002
5.914991e+002,4.671339e+002
5.924634e+002,4.634819e+002
5.934276e+002,4.594594e+002
5.943918e+002,4.557828e+002
5.953560e+002,4.522901e+002
5.963203e+002,4.483792e+002
5.972845e+002,4.441591e+002
5.982487e+002,4.403757e+002
5.992130e+002,4.385252e+002
6.001772e+002,4.388226e+002
6.011414e+002,4.376703e+002
6.021057e+002,4.340770e+002
6.030699e+002,4.286294e+002
6.040341e+002,4.222157e+002
6.049984e+002,4.144550e+002
6.059626e+002,4.087412e+002
6.069268e+002,4.076861e+002
6.078911e+002,4.070768e+002
6.088553e+002,4.033911e+002
6.098195e+002,3.957804e+002
6.107838e+002,3.885367e+002
6.117480e+002,3.863476e+002
6.127122e+002,3.853470e+002
6.136765e+002,3.831324e+002
6.146407e+002,3.793661e+002
6.156049e+002,3.752952e+002
6.165692e+002,3.732465e+002
6.175334e+002,3.729460e+002
6.184976e+002,3.704053e+002
6.194619e+002,3.654430e+002
6.204261e+002,3.597223e+002
6.213903e+002,3.550485e+002
6.223546e+002,3.512444e+002
6.233188e+002,3.481226e+002
6.242830e+002,3.459370e+002
6.252473e+002,3.437119e+002
6.262115e+002,3.410567e+002
6.271757e+002,3.380129e+002
6.281400e+002,3.348520e+002
6.291042e+002,3.316721e+002
6.300684e+002,3.285524e+002
6.310327e+002,3.255158e+002
6.319969e+002,3.225615e+002
6.329611e+002,3.196444e+002
6.339254e+002,3.166312e+002
6.348896e+002,3.131010e+002
6.358538e+002,3.090450e+002
6.368181e+002,3.045989e+002
6.377823e+002,3.003484e+002
6.387465e+002,2.968441e+002
6.397108e+002,2.942239e+002
6.406750e+002,2.922402e+002
6.416392e+002,2.906320e+002
6.426035e+002,2.888092e+002
6.435677e+002,2.870244e+002
6.445319e+002,2.852835e+002
6.454962e+002,2.827054e+002
6.464604e+002,2.773274e+002
6.474246e+002,2.720083e+002
6.483889e+002,2.684942e+002
6.493531e+002,2.665134e+002
6.503173e+002,2.651149e+002
6.512816e+002,2.634199e+002
6.522458e+002,2.615323e+002
6.532100e+002,2.588182e+002
6.541743e+002,2.552681e+002
6.551385e+002,2.518831e+002
6.561027e+002,2.492692e+002
6.570670e+002,2.472890e+002
6.580312e+002,2.455672e+002
6.589954e+002,2.444863e+002
6.599597e+002,2.425184e+002
6.609239e+002,2.391276e+002
6.618881e+002,2.348835e+002
6.628524e+002,2.310781e+002
6.638166e+002,2.285561e+002
6.647808e+002,2.267484e+002
6.657451e+002,2.247946e+002
6.667093e+002,2.226072e+002
6.676735e+002,2.205787e+002
6.686378e+002,2.192102e+002
6.696020e+002,2.184127e+002
6.705662e+002,2.151266e+002
6.715305e+002,2.085196e+002
6.724947e+002,2.024052e+002
6.734589e+002,1.995145e+002
6.744232e+002,1.997979e+002
6.753874e+002,1.991765e+002
6.763516e+002,1.954008e+002
6.773159e+002,1.920371e+002
6.782801e+002,1.896677e+002
6.792443e+002,1.878522e+002
6.802086e+002,1.858517e+002
6.811728e+002,1.832259e+002
6.821370e+002,1.804540e+002
6.831013e+002,1.788144e+002
6.840655e+002,1.779807e+002
6.850297e+002,1.769207e+002
6.859940e+002,1.748750e+002
6.869582e+002,1.718721e+002
6.879224e+002,1.689971e+002
6.888867e+002,1.661752e+002
6.898509e+002,1.632785e+002
6.908151e+002,1.600854e+002
6.917794e+002,1.572122e+002
6.927436e+002,1.559973e+002
6.937078e+002,1.582107e+002
6.946721e+002,1.586369e+002
6.956363e+002,1.546630e+002
6.966005e+002,1.493742e+002
6.975648e+002,1.454650e+002
6.985290e+002,1.438963e+002
6.994932e+002,1.430332e+002
7.004575e+002,1.406079e+002
7.014217e+002,1.374358e+002
7.023859e+002,1.343962e+002
7.033502e+002,1.318560e+002
7.043144e+002,1.299028e+002
7.052786e+002,1.284415e+002
7.062429e+002,1.269807e+002
7.072071e+002,1.262189e+002
7.081713e+002,1.271365e+002
7.091356e+002,1.284902e+002
7.100998e+002,1.291322e+002
7.110640e+002,1.287041e+002
7.120283e+002,1.276289e+002
7.129925e+002,1.257432e+002
7.139567e+002,1.237410e+002
7.149210e+002,1.221130e+002
7.158852e+002,1.208223e+002
7.168494e+002,1.193730e+002
7.178137e+002,1.170384e+002
7.187779e+002,1.144104e+002
7.197421e+002,1.137978e+002
7.207064e+002,1.152386e+002
7.216706e+002,1.164711e+002
7.226348e+002,1.152457e+002
7.235991e+002,1.111384e+002
7.245633e+002,1.085252e+002
7.255275e+002,1.073976e+002
7.264918e+002,1.066322e+002
7.274560e+002,1.068066e+002
7.284202e+002,1.075154e+002
7.293845e+002,1.072728e+002
7.303487e+002,1.043936e+002
7.313129e+002,1.014676e+002
7.322772e+002,1.005217e+002
7.332414e+002,1.009896e+002
7.342056e+002,1.022868e+002
7.351699e+002,1.040433e+002
7.361341e+002,1.061164e+002
7.370983e+002,1.071311e+002
7.380626e+002,1.065299e+002
7.390268e+002,1.055805e+002
7.399910e+002,1.044185e+002
7.409553e+002,1.036525e+002
7.419195e+002,1.045487e+002
7.428837e+002,1.083877e+002
7.438480e+002,1.102107e+002
7.448122e+002,1.082492e+002
7.457764e+002,1.057735e+002
7.467407e+002,1.054187e+002
7.477049e+002,1.079124e+002
7.486691e+002,1.115773e+002
7.496334e+002,1.148058e+002
7.505976e+002,1.168405e+002
7.515618e+002,1.167898e+002
7.525261e+002,1.148290e+002
7.534903e+002,1.124215e+002
7.544545e+002,1.116607e+002
7.554188e+002,1.134026e+002
7.563830e+002,1.150923e+002
7.573472e+002,1.149841e+002
7.583115e+002,1.152672e+002
7.592757e+002,1.185002e+002
7.602399e+002,1.246099e+002
7.612042e+002,1.289787e+002
7.621684e+002,1.271479e+002
7.631326e+002,1.247655e+002
7.640969e+002,1.241351e+002
7.650611e+002,1.248335e+002
7.660253e+002,1.258648e+002
7.669896e+002,1.266729e+002
7.679538e+002,1.278579e+002
7.689180e+002,1.302175e+002
7.698823e+002,1.327159e+002
7.708465e+002,1.345164e+002
7.718107e+002,1.358858e+002
7.727750e+002,1.369744e+002
7.737392e+002,1.368507e+002
7.747034e+002,1.337116e+002
7.756677e+002,1.321721e+002
7.766319e+002,1.328738e+002
7.775961e+002,1.344337e+002
7.785604e+002,1.360052e+002
7.795246e+002,1.373927e+002
7.804888e+002,1.380486e+002
7.814531e+002,1.361221e+002
7.824173e+002,1.340770e+002
7.833815e+002,1.342556e+002
7.843458e+002,1.366556e+002
7.853100e+002,1.394489e+002
7.862742e+002,1.401879e+002
7.872385e+002,1.383852e+002
7.882027e+002,1.370477e+002
7.891669e+002,1.365492e+002
7.901312e+002,1.354743e+002
7.910954e+002,1.330411e+002
7.920596e+002,1.298333e+002
7.930239e+002,1.278833e+002
7.939881e+002,1.280587e+002
7.949523e+002,1.283519e+002
7.959166e+002,1.282517e+002
7.968808e+002,1.277379e+002
7.978450e+002,1.266806e+002
7.988093e+002,1.250477e+002
7.997735e+002,1.236062e+002
8.007377e+002,1.247512e+002
8.017020e+002,1.269424e+002
8.026662e+002,1.272879e+002
8.036304e+002,1.248600e+002
8.045947e+002,1.207909e+002
8.055589e+002,1.172810e+002
8.065231e+002,1.142122e+002
8.074874e+002,1.120052e+002
8.084516e+002,1.109647e+002
8.094158e+002,1.103289e+002
8.103801e+002,1.103374e+002
8.113443e+002,1.110871e+002
8.123085e+002,1.114614e+002
8.132728e+002,1.098247e+002
8.142370e+002,1.073931e+002
8.152012e+002,1.046479e+002
8.161655e+002,1.015294e+002
8.171297e+002,9.833804e+001
8.180939e+002,9.558560e+001
8.190582e+002,9.368440e+001
8.200224e+002,9.206749e+001
8.209866e+002,9.036168e+001
8.219509e+002,8.862621e+001
8.229151e+002,8.675105e+001
8.238793e+002,8.464139e+001
8.248436e+002,8.218510e+001
8.258078e+002,7.909042e+001
8.267720e+002,7.666083e+001
8.277363e+002,7.525386e+001
8.287005e+002,7.396931e+001
8.296647e+002,7.235980e+001
8.306290e+002,7.056014e+001
8.315932e+002,6.915512e+001
8.325574e+002,6.875497e+001
8.335217e+002,6.878412e+001
8.344859e+002,6.805344e+001
8.354501e+002,6.648373e+001
8.364144e+002,6.467135e+001
8.373786e+002,6.325525e+001
8.383428e+002,6.237117e+001
8.393071e+002,6.126778e+001
8.402713e+002,5.947296e+001
8.412355e+002,5.812008e+001
8.421998e+002,5.776823e+001
8.431640e+002,5.762577e+001
8.441282e+002,5.626424e+001
8.450925e+002,5.285478e+001
8.460567e+002,5.026055e+001
8.470209e+002,5.161717e+001
8.479852e+002,5.364248e+001
8.489494e+002,5.340995e+001
8.499136e+002,5.086473e+001
8.508779e+002,4.837564e+001
8.518421e+002,4.905493e+001
8.528063e+002,5.279908e+001
8.537706e+002,5.465107e+001
8.547348e+002,5.431902e+001
8.556990e+002,5.345687e+001
8.566633e+002,5.304013e+001
8.576275e+002,5.282668e+001
8.585917e+002,5.156158e+001
8.595560e+002,4.788485e+001
8.605202e+002,4.537466e+001
8.614844e+002,4.567378e+001
8.624487e+002,4.722283e+001
8.634129e+002,4.811853e+001
8.643771e+002,4.747034e+001
8.653414e+002,4.604802e+001
8.663056e+002,4.524562e+001
8.672698e+002,4.550540e+001
8.682341e+002,4.679513e+001
8.691983e+002,4.879633e+001
8.701625e+002,5.055673e+001
8.711268e+002,5.102304e+001
8.720910e+002,4.986880e+001
8.730552e+002,4.817260e+001
8.740195e+002,4.657216e+001
8.749837e+002,4.586068e+001
8.759479e+002,4.587488e+001
8.769122e+002,4.632596e+001
8.778764e+002,4.693108e+001
8.788406e+002,4.744066e+001
8.798049e+002,4.805008e+001
8.807691e+002,5.091296e+001
8.817333e+002,5.389252e+001
8.826976e+002,5.359411e+001
8.836618e+002,4.953318e+001
8.846260e+002,4.453515e+001
8.855903e+002,4.321698e+001
8.865545e+002,4.609202e+001
8.875187e+002,4.845418e+001
8.884830e+002,5.094193e+001
8.894472e+002,5.239701e+001
8.904114e+002,5.142036e+001
8.913757e+002,4.862553e+001
8.923399e+002,4.733306e+001
8.933041e+002,4.887035e+001
8.942684e+002,5.037674e+001
8.952326e+002,5.131664e+001
8.961968e+002,5.169171e+001
8.971611e+002,5.141264e+001
8.981253e+002,5.064333e+001
8.990895e+002,4.999259e+001
9.000538e+002,5.011655e+001
9.010180e+002,5.087521e+001
9.019822e+002,5.211114e+001
9.029465e+002,5.396106e+001
9.039107e+002,5.606116e+001
9.048749e+002,5.824473e+001
9.058392e+002,6.047724e+001
9.068034e+002,6.155830e+001
9.077676e+002,6.020106e+001
9.087319e+002,5.928801e+001
9.096961e+002,5.951715e+001
9.106603e+002,6.073444e+001
9.116246e+002,6.252246e+001
9.125888e+002,6.455576e+001
9.135530e+002,6.671037e+001
9.145173e+002,6.916167e+001
9.154815e+002,7.138918e+001
9.164457e+002,7.317485e+001
9.174100e+002,7.475793e+001
9.183742e+002,7.612805e+001
9.193384e+002,7.694046e+001
9.203027e+002,7.696539e+001
9.212669e+002,7.830658e+001
9.222311e+002,8.124333e+001
9.231954e+002,8.336842e+001
9.241596e+002,8.391110e+001
9.251238e+002,8.420555e+001
9.260881e+002,8.642514e+001
9.270523e+002,9.150432e+001
9.280165e+002,9.617957e+001
9.289808e+002,9.646490e+001
9.299450e+002,9.630363e+001
9.309092e+002,9.967316e+001
9.318735e+002,1.064209e+002
9.328377e+002,1.131776e+002
9.338019e+002,1.161897e+002
9.347662e+002,1.154523e+002
9.357304e+002,1.145654e+002
9.366946e+002,1.133804e+002
9.376589e+002,1.135552e+002
9.386231e+002,1.159395e+002
9.395873e+002,1.194009e+002
9.405516e+002,1.219341e+002
9.415158e+002,1.232727e+002
9.424800e+002,1.246590e+002
9.434443e+002,1.271420e+002
9.444085e+002,1.295376e+002
9.453727e+002,1.309583e+002
9.463370e+002,1.313396e+002
9.473012e+002,1.309359e+002
9.482654e+002,1.297379e+002
9.492297e+002,1.279251e+002
9.501939e+002,1.276355e+002
9.511581e+002,1.293040e+002
9.521224e+002,1.322912e+002
9.530866e+002,1.374476e+002
9.540508e+002,1.430295e+002
9.550151e+002,1.444835e+002
9.559793e+002,1.394601e+002
9.569435e+002,1.349504e+002
9.579078e+002,1.329992e+002
9.588720e+002,1.327075e+002
9.598362e+002,1.337828e+002
9.608005e+002,1.356070e+002
9.617647e+002,1.372182e+002
9.627289e+002,1.378352e+002
9.636932e+002,1.382422e+002
9.646574e+002,1.407872e+002
9.656216e+002,1.443755e+002
9.665859e+002,1.459612e+002
9.675501e+002,1.443504e+002
9.685143e+002,1.413751e+002
9.694786e+002,1.404144e+002
9.704428e+002,1.421033e+002
9.714070e+002,1.446118e+002
9.723713e+002,1.469161e+002
9.733355e+002,1.493000e+002
9.742997e+002,1.528224e+002
9.752640e+002,1.573025e+002
9.762282e+002,1.614688e+002
9.771924e+002,1.641692e+002
9.781567e+002,1.663550e+002
9.791209e+002,1.699056e+002
9.800851e+002,1.740243e+002
9.810494e+002,1.777563e+002
9.820136e+002,1.809519e+002
9.829778e+002,1.834526e+002
9.839421e+002,1.845738e+002
9.849063e+002,1.834479e+002
9.858705e+002,1.827838e+002
9.868348e+002,1.837360e+002
9.877990e+002,1.854197e+002
9.887632e+002,1.877511e+002
9.897275e+002,1.902689e+002
9.906917e+002,1.921735e+002
9.916559e+002,1.927819e+002
9.926202e+002,1.922562e+002
9.935844e+002,1.913962e+002
9.945486e+002,1.906246e+002
9.955129e+002,1.901464e+002
9.964771e+002,1.900559e+002
9.974413e+002,1.900900e+002
9.984056e+002,1.897750e+002
9.993698e+002,1.889281e+002
1.000334e+003,1.887317e+002
1.001298e+003,1.896681e+002
1.002263e+003,1.909032e+002
1.003227e+003,1.923854e+002
1.004191e+003,1.939837e+002
1.005155e+003,1.959145e+002
1.006119e+003,1.981992e+002
1.007084e+003,1.989503e+002
1.008048e+003,1.950807e+002
1.009012e+003,1.922858e+002
1.009976e+003,1.941114e+002
1.010941e+003,1.988316e+002
1.011905e+003,2.034443e+002
1.012869e+003,2.062107e+002
1.013833e+003,2.073272e+002
1.014798e+003,2.072139e+002
1.015762e+003,2.058477e+002
1.016726e+003,2.072120e+002
1.017690e+003,2.131818e+002
1.018654e+003,2.198627e+002
1.019619e+003,2.241499e+002
1.020583e+003,2.262278e+002
1.021547e+003,2.284777e+002
1.022511e+003,2.308250e+002
1.023476e+003,2.340748e+002
1.024440e+003,2.398220e+002
1.025404e+003,2.464509e+002
1.026368e+003,2.526866e+002
1.027333e+003,2.578517e+002
1.028297e+003,2.614516e+002
1.029261e+003,2.624971e+002
1.030225e+003,2.610447e+002
1.031190e+003,2.619370e+002
1.032154e+003,2.664364e+002
1.033118e+003,2.712811e+002
1.034082e+003,2.739090e+002
1.035047e+003,2.756948e+002
1.036011e+003,2.805735e+002
1.036975e+003,2.900154e+002
1.037939e+003,2.974363e+002
1.038903e+003,3.004075e+002
1.039868e+003,3.026011e+002
1.040832e+003,3.051649e+002
1.041796e+003,3.080946e+002
1.042760e+003,3.107541e+002
1.043725e+003,3.127802e+002
1.044689e+003,3.149852e+002
1.045653e+003,3.201960e+002
1.046617e+003,3.282264e+002
1.047582e+003,3.342285e+002
1.048546e+003,3.375382e+002
1.049510e+003,3.404297e+002
1.050474e+003,3.445793e+002
1.051438e+003,3.495933e+002
1.052403e+003,3.545179e+002
1.053367e+003,3.590096e+002
1.054331e+003,3.632732e+002
1.055295e+003,3.677766e+002
1.056260e+003,3.723576e+002
1.057224e+003,3.766974e+002
1.058188e+003,3.809250e+002
1.059152e+003,3.856185e+002
1.060117e+003,3.912531e+002
1.061081e+003,3.977604e+002
1.062045e+003,4.052772e+002
1.063009e+003,4.133984e+002
1.063974e+003,4.200495e+002
1.064938e+003,4.246058e+002
1.065902e+003,4.281622e+002
1.066866e+003,4.318761e+002
1.067830e+003,4.348275e+002
1.068795e+003,4.389162e+002
1.069759e+003,4.463829e+002
1.070723e+003,4.538518e+002
1.071687e+003,4.605379e+002
1.072652e+003,4.665266e+002
1.073616e+003,4.713969e+002
1.074580e+003,4.746403e+002
1.075544e+003,4.770842e+002
1.076509e+003,4.806841e+002
1.077473e+003,4.857200e+002
1.078437e+003,4.921664e+002
1.079401e+003,5.008285e+002
1.080365e+003,5.087153e+002
1.081330e+003,5.125012e+002
1.082294e+003,5.127941e+002
1.083258e+003,5.146871e+002
1.084222e+003,5.194965e+002
1.085187e+003,5.243021e+002
1.086151e+003,5.294070e+002
1.087115e+003,5.336398e+002
1.088079e+003,5.351382e+002
1.089043e+003,5.346546e+002
1.090008e+003,5.353420e+002
1.090972e+003,5.397900e+002
1.091936e+003,5.455075e+002
1.092900e+003,5.446315e+002
1.093865e+003,5.382136e+002
1.094829e+003,5.339362e+002
1.095793e+003,5.344525e+002
1.096757e+003,5.367912e+002
1.097722e+003,5.374609e+002
1.098686e+003,5.359756e+002
1.099650e+003,5.333865e+002
1.100614e+003,5.304100e+002
1.101578e+003,5.273757e+002
1.102543e+003,5.237321e+002
1.103507e+003,5.199905e+002
1.104471e+003,5.163021e+002
1.105435e+003,5.123920e+002
1.106400e+003,5.082746e+002
1.107364e+003,5.047949e+002
1.108328e+003,5.018316e+002
1.109292e+003,4.959554e+002
1.110257e+003,4.874465e+002
1.111221e+003,4.799261e+002
1.112185e+003,4.742002e+002
1.113149e+003,4.688515e+002
1.114114e+003,4.623622e+002
1.115078e+003,4.549622e+002
1.116042e+003,4.481405e+002
1.117006e+003,4.430937e+002
1.117970e+003,4.380750e+002
1.118935e+003,4.317674e+002
1.119899e+003,4.247620e+002
1.120863e+003,4.183560e+002
1.121827e+003,4.130928e+002
1.122792e+003,4.082424e+002
1.123756e+003,4.025331e+002
1.124720e+003,3.954490e+002
1.125684e+003,3.880457e+002
1.126649e+003,3.813278e+002
1.127613e+003,3.743821e+002
1.128577e+003,3.659212e+002
1.129541e+003,3.571507e+002
1.130505e+003,3.502672e+002
1.131470e+003,3.454605e+002
1.132434e+003,3.401466e+002
1.133398e+003,3.336171e+002
1.134362e+003,3.271707e+002
1.135327e+003,3.209186e+002
1.136291e+003,3.148479e+002
1.137255e+003,3.091177e+002
1.138219e+003,3.038369e+002
1.139184e+003,2.988535e+002
1.140148e+003,2.937417e+002
1.141112e+003,2.880813e+002
1.142076e+003,2.829258e+002
1.143041e+003,2.794316e+002
1.144005e+003,2.756696e+002
1.144969e+003,2.704321e+002
1.145933e+003,2.648284e+002
1.146897e+003,2.607277e+002
1.147862e+003,2.581483e+002
1.148826e+003,2.546541e+002
1.149790e+003,2.490964e+002
1.150754e+003,2.430460e+002
1.151719e+003,2.368811e+002
1.152683e+003,2.311085e+002
1.153647e+003,2.263294e+002
1.154611e+003,2.228002e+002
1.155576e+003,2.203002e+002
1.156540e+003,2.184359e+002
1.157504e+003,2.168018e+002
1.158468e+003,2.125992e+002
1.159432e+003,2.049902e+002
1.160397e+003,1.978350e+002
1.161361e+003,1.923152e+002
1.162325e+003,1.879883e+002
1.163289e+003,1.840105e+002
1.164254e+003,1.800267e+002
1.165218e+003,1.764854e+002
1.166182e+003,1.743961e+002
1.167146e+003,1.723369e+002
1.168111e+003,1.686205e+002
1.169075e+003,1.639254e+002
1.170039e+003,1.594645e+002
1.171003e+003,1.557063e+002
1.171968e+003,1.525511e+002
1.172932e+003,1.500318e+002
1.173896e+003,1.483516e+002
1.174860e+003,1.460058e+002
1.175824e+003,1.422736e+002
1.176789e+003,1.381314e+002
1.177753e+003,1.331599e+002
1.178717e+003,1.284730e+002
1.179681e+003,1.251863e+002
1.180646e+003,1.231263e+002
1.181610e+003,1.210055e+002
1.182574e+003,1.181973e+002
1.183538e+003,1.149815e+002
1.184503e+003,1.116373e+002
1.185467e+003,1.082974e+002
1.186431e+003,1.050847e+002
1.187395e+003,1.018708e+002
1.188359e+003,9.863373e+001
1.189324e+003,9.564252e+001
1.190288e+003,9.317548e+001
1.191252e+003,9.118961e+001
1.192216e+003,8.989940e+001
1.193181e+003,8.821477e+001
1.194145e+003,8.542990e+001
1.195109e+003,8.224432e+001
1.196073e+003,7.948146e+001
1.197038e+003,7.722530e+001
1.198002e+003,7.501464e+001
1.198966e+003,7.250740e+001
1.199930e+003,6.986703e+001
1.200895e+003,6.742470e+001
1.201859e+003,6.514404e+001
1.202823e+003,6.266810e+001
1.203787e+003,5.977437e+001
1.204751e+003,5.739856e+001
1.205716e+003,5.686997e+001
1.206680e+003,5.733110e+001
1.207644e+003,5.592339e+001
1.208608e+003,5.193705e+001
1.209573e+003,4.828942e+001
1.210537e+003,4.633601e+001
1.211501e+003,4.495893e+001
1.212465e+003,4.380210e+001
1.213430e+003,4.288000e+001
1.214394e+003,4.193348e+001
1.215358e+003,4.061536e+001
1.216322e+003,3.897299e+001
1.217286e+003,3.761962e+001
1.218251e+003,3.671154e+001
1.219215e+003,3.482724e+001
1.220179e+003,3.170886e+001
1.221143e+003,2.992097e+001
1.222108e+003,3.090742e+001
1.223072e+003,3.284332e+001
1.224036e+003,3.354042e+001
1.225000e+003,3.276839e+001
1.225965e+003,3.184138e+001
1.226929e+003,3.145787e+001
1.227893e+003,3.003046e+001
1.228857e+003,2.682893e+001
1.229822e+003,2.370080e+001
1.230786e+003,2.192148e+001
1.231750e+003,2.131267e+001
1.232714e+003,2.089396e+001
1.233678e+003,1.991445e+001
1.234643e+003,1.862334e+001
1.235607e+003,1.835937e+001
1.236571e+003,2.056768e+001
1.237535e+003,2.193667e+001
1.238500e+003,2.195104e+001
1.239464e+003,2.125152e+001
1.240428e+003,1.925322e+001
1.241392e+003,1.671297e+001
1.242357e+003,1.534451e+001
1.243321e+003,1.585062e+001
1.244285e+003,1.693800e+001
1.245249e+003,1.749583e+001
1.246214e+003,1.773602e+001
1.247178e+003,1.781646e+001
1.248142e+003,1.742502e+001
1.249106e+003,1.652105e+001
1.250070e+003,1.521039e+001
1.251035e+003,1.401873e+001
1.251999e+003,1.352505e+001
1.252963e+003,1.370177e+001
1.253927e+003,1.406523e+001
1.254892e+003,1.530155e+001
1.255856e+003,1.595966e+001
1.256820e+003,1.496162e+001
1.257784e+003,1.371772e+001
1.258749e+003,1.349365e+001
1.259713e+003,1.406374e+001
1.260677e+003,1.426114e+001
1.261641e+003,1.338997e+001
1.262605e+003,1.207397e+001
1.263570e+003,1.148134e+001
1.264534e+003,1.174288e+001
1.265498e+003,1.200806e+001
1.266462e+003,1.256181e+001
1.267427e+003,1.272955e+001
1.268391e+003,1.164233e+001
1.269355e+003,9.745277e+000
1.270319e+003,8.062931e+000
1.271284e+003,6.908585e+000
1.272248e+003,6.207043e+000
1.273212e+003,6.127186e+000
1.274176e+003,7.117199e+000
1.275141e+003,9.472309e+000
1.276105e+003,1.135566e+001
1.277069e+003,1.051200e+001
1.278033e+003,7.109924e+000
1.278997e+003,3.653748e+000
1.279962e+003,2.442062e+000
1.280926e+003,3.672073e+000
1.281890e+003,6.892788e+000
1.282854e+003,1.352206e+001
1.283819e+003,1.640479e+001
1.284783e+003,1.416159e+001
1.285747e+003,1.112785e+001
1.286711e+003,9.090485e+000
1.287676e+003,8.238712e+000
1.288640e+003,8.469994e+000
1.289604e+003,9.438625e+000
1.290568e+003,1.004390e+001
1.291532e+003,9.265121e+000
1.292497e+003,7.792297e+000
1.293461e+003,7.415222e+000
1.294425e+003,8.111919e+000
1.295389e+003,8.744087e+000
1.296354e+003,8.747513e+000
1.297318e+003,8.597668e+000
1.298282e+003,8.692188e+000
1.299246e+003,9.011974e+000
1.300211e+003,1.014894e+001
1.301175e+003,1.362683e+001
1.302139e+003,1.537675e+001
1.303103e+003,1.073486e+001
1.304068e+003,6.169731e+000
1.305032e+003,6.731117e+000
1.305996e+003,1.042878e+001
1.306960e+003,1.307802e+001
1.307924e+003,1.301381e+001
1.308889e+003,1.148071e+001
1.309853e+003,9.620136e+000
1.310817e+003,6.874905e+000
1.311781e+003,4.986465e+000
1.312746e+003,6.052238e+000
1.313710e+003,7.073555e+000
1.314674e+003,7.301952e+000
1.315638e+003,7.306030e+000
1.316603e+003,6.868130e+000
1.317567e+003,6.020611e+000
1.318531e+003,5.999310e+000
1.319495e+003,7.929405e+000
1.320459e+003,1.020971e+001
1.321424e+003,1.051452e+001
1.322388e+003,9.385487e+000
1.323352e+003,8.456997e+000
1.324316e+003,7.774586e+000
1.325281e+003,6.820854e+000
1.326245e+003,5.172039e+000
1.327209e+003,3.725903e+000
1.328173e+003,3.882416e+000
1.329138e+003,5.619350e+000
1.330102e+003,7.422192e+000
1.331066e+003,1.025120e+001
1.332030e+003,1.189177e+001
1.332995e+003,1.044768e+001
1.333959e+003,8.430748e+000
1.334923e+003,7.709705e+000
1.335887e+003,7.767570e+000
1.336851e+003,7.106369e+000
1.337816e+003,5.390949e+000
1.338780e+003,4.089329e+000
1.339744e+003,4.883766e+000
1.340708e+003,7.228416e+000
1.341673e+003,8.217705e+000
1.342637e+003,7.333439e+000
1.343601e+003,6.627934e+000
1.344565e+003,7.030930e+000
1.345530e+003,7.656868e+000
1.346494e+003,7.759903e+000
1.347458e+003,7.351086e+000
1.348422e+003,6.339340e+000
1.349386e+003,4.397465e+000
1.350351e+003,2.950508e+000
1.351315e+003,3.789730e+000
1.352279e+003,5.953030e+000
1.353243e+003,7.884197e+000
1.354208e+003,9.580914e+000
1.355172e+003,1.060879e+001
1.356136e+003,1.040636e+001
1.357100e+003,9.819035e+000
1.358065e+003,1.051019e+001
1.359029e+003,1.235013e+001
1.359993e+003,1.235302e+001
1.360957e+003,9.517029e+000
1.361922e+003,7.682182e+000
1.362886e+003,8.654568e+000
1.363850e+003,9.874676e+000
1.364814e+003,9.730206e+000
1.365778e+003,8.662502e+000
1.366743e+003,7.610165e+000
1.367707e+003,7.003365e+000
1.368671e+003,7.032597e+000
1.369635e+003,8.069504e+000
1.370600e+003,9.807625e+000
1.371564e+003,9.582169e+000
1.372528e+003,5.243416e+000
1.373492e+003,3.331951e+000
1.374457e+003,5.432926e+000
1.375421e+003,7.467903e+000
1.376385e+003,7.727104e+000
1.377349e+003,7.204430e+000
1.378313e+003,7.104836e+000
1.379278e+003,7.530861e+000
1.380242e+003,8.207417e+000
1.381206e+003,9.320969e+000
1.382170e+003,1.044848e+001
1.383135e+003,1.040294e+001
1.384099e+003,9.614891e+000
1.385063e+003,9.144089e+000
1.386027e+003,8.635426e+000
1.386992e+003,8.041420e+000
1.387956e+003,8.179272e+000
1.388920e+003,8.773712e+000
1.389884e+003,8.468716e+000
1.390849e+003,7.260571e+000
1.391813e+003,7.404949e+000
1.392777e+003,9.945793e+000
1.393741e+003,1.113237e+001
1.394705e+003,8.959377e+000
1.395670e+003,6.456837e+000
1.396634e+003,5.636349e+000
1.397598e+003,6.128895e+000
1.398562e+003,7.033653e+000
1.399527e+003,8.135357e+000
1.400491e+003,9.370342e+000
1.401455e+003,1.023709e+001
1.402419e+003,1.067492e+001
1.403384e+003,1.097578e+001
1.404348e+003,1.093422e+001
1.405312e+003,9.601673e+000
1.406276e+003,6.953445e+000
1.407240e+003,5.250942e+000
1.408205e+003,4.757645e+000
1.409169e+003,5.066032e+000
1.410133e+003,6.421524e+000
1.411097e+003,8.656086e+000
1.412062e+003,1.039594e+001
1.413026e+003,1.079691e+001
1.413990e+003,1.055712e+001
1.414954e+003,9.844475e+000
1.415919e+003,8.064796e+000
1.416883e+003,7.317509e+000
1.417847e+003,8.082047e+000
1.418811e+003,8.870857e+000
1.419776e+003,9.187061e+000
1.420740e+003,9.246773e+000
1.421704e+003,9.221817e+000
1.422668e+003,9.254158e+000
1.423632e+003,9.676800e+000
1.424597e+003,1.057775e+001
1.425561e+003,1.168610e+001
1.426525e+003,1.342564e+001
1.427489e+003,1.502571e+001
1.428454e+003,1.473489e+001
1.429418e+003,1.263204e+001
1.430382e+003,1.110114e+001
1.431346e+003,1.126120e+001
1.432311e+003,1.182932e+001
1.433275e+003,1.175729e+001
1.434239e+003,1.164832e+001
1.435203e+003,1.106081e+001
1.436167e+003,8.599026e+000
1.437132e+003,7.110363e+000
1.438096e+003,8.488754e+000
1.439060e+003,9.938843e+000
1.440024e+003,1.013952e+001
1.440989e+003,9.957684e+000
1.441953e+003,1.063001e+001
1.442917e+003,1.207875e+001
1.443881e+003,1.285475e+001
1.444846e+003,1.184221e+001
1.445810e+003,1.008601e+001
1.446774e+003,1.055006e+001
1.447738e+003,1.454798e+001
1.448703e+003,1.541520e+001
1.449667e+003,1.014800e+001
1.450631e+003,6.252254e+000
1.451595e+003,6.370892e+000
1.452559e+003,8.537849e+000
1.453524e+003,1.153688e+001
1.454488e+003,1.448347e+001
1.455452e+003,1.595824e+001
1.456416e+003,1.535012e+001
1.457381e+003,1.432931e+001
1.458345e+003,1.519960e+001
1.459309e+003,1.735400e+001
1.460273e+003,1.742982e+001
1.461238e+003,1.555104e+001
1.462202e+003,1.409570e+001
1.463166e+003,1.307083e+001
1.464130e+003,1.259959e+001
1.465094e+003,1.243589e+001
1.466059e+003,1.214675e+001
1.467023e+003,1.174920e+001
1.467987e+003,1.153809e+001
1.468951e+003,1.149950e+001
1.469916e+003,1.176218e+001
1.470880e+003,1.269115e+001
1.471844e+003,1.391290e+001
1.472808e+003,1.470811e+001
1.473773e+003,1.549477e+001
1.474737e+003,1.677371e+001
1.475701e+003,1.750601e+001
1.476665e+003,1.680965e+001
1.477630e+003,1.607981e+001
1.478594e+003,1.667480e+001
1.479558e+003,1.806572e+001
1.480522e+003,1.948422e+001
1.481486e+003,2.131200e+001
1.482451e+003,2.243109e+001
1.483415e+003,2.165520e+001
1.484379e+003,2.055849e+001
1.485343e+003,2.055119e+001
1.486308e+003,2.125163e+001
1.487272e+003,2.170669e+001
1.488236e+003,2.169152e+001
1.489200e+003,2.176832e+001
1.490165e+003,2.221644e+001
1.491129e+003,2.291808e+001
1.492093e+003,2.429884e+001
1.493057e+003,2.674966e+001
1.494021e+003,2.760847e+001
1.494986e+003,2.515917e+001
1.495950e+003,2.427168e+001
1.496914e+003,2.724885e+001
1.497878e+003,3.057623e+001
1.498843e+003,3.231113e+001
1.499807e+003,3.278276e+001
1.500771e+003,3.254063e+001
1.501735e+003,3.194083e+001
1.502700e+003,3.152349e+001
1.503664e+003,3.168494e+001
1.504628e+003,3.244934e+001
1.505592e+003,3.471275e+001
1.506557e+003,4.012024e+001
1.507521e+003,4.269154e+001
1.508485e+003,3.919567e+001
1.509449e+003,3.640555e+001
1.510413e+003,3.542846e+001
1.511378e+003,3.527977e+001
1.512342e+003,3.600162e+001
1.513306e+003,3.701306e+001
1.514270e+003,3.721144e+001
1.515235e+003,3.618391e+001
1.516199e+003,3.439116e+001
1.517163e+003,3.235658e+001
1.518127e+003,3.035561e+001
1.519092e+003,2.881868e+001
1.520056e+003,2.746923e+001
1.521020e+003,2.681312e+001
1.521984e+003,2.752327e+001
1.522948e+003,2.783527e+001
1.523913e+003,2.712704e+001
1.524877e+003,2.663554e+001
1.525841e+003,2.723875e+001
1.526805e+003,2.867098e+001
1.527770e+003,3.051824e+001
1.528734e+003,3.227545e+001
1.529698e+003,3.249413e+001
1.530662e+003,3.008212e+001
1.531627e+003,2.625787e+001
1.532591e+003,2.351031e+001
1.533555e+003,2.198033e+001
1.534519e+003,2.081240e+001
1.535484e+003,2.009421e+001
1.536448e+003,1.978189e+001
1.537412e+003,1.991072e+001
1.538376e+003,1.998784e+001
1.539340e+003,1.960266e+001
1.540305e+003,1.910235e+001
1.541269e+003,1.915812e+001
1.542233e+003,1.969397e+001
1.543197e+003,1.963343e+001
1.544162e+003,1.808404e+001
1.545126e+003,1.598862e+001
1.546090e+003,1.587468e+001
1.547054e+003,1.807366e+001
1.548019e+003,1.977824e+001
1.548983e+003,1.937159e+001
1.549947e+003,1.859920e+001
1.550911e+003,1.857344e+001
1.551875e+003,1.882397e+001
1.552840e+003,1.912857e+001
1.553804e+003,1.983005e+001
1.554768e+003,2.105856e+001
1.555732e+003,2.247730e+001
1.556697e+003,2.250002e+001
1.557661e+003,1.982357e+001
1.558625e+003,1.639900e+001
1.559589e+003,1.462023e+001
1.560554e+003,1.423548e+001
1.561518e+003,1.512732e+001
1.562482e+003,1.734685e+001
1.563446e+003,1.878193e+001
1.564411e+003,1.766256e+001
1.565375e+003,1.628450e+001
1.566339e+003,1.809369e+001
1.567303e+003,2.173665e+001
1.568267e+003,2.185330e+001
1.569232e+003,1.730946e+001
1.570196e+003,1.353203e+001
1.571160e+003,1.313044e+001
1.572124e+003,1.400019e+001
1.573089e+003,1.436089e+001
1.574053e+003,1.503323e+001
1.575017e+003,1.712754e+001
1.575981e+003,2.043357e+001
1.576946e+003,2.345735e+001
1.577910e+003,2.565592e+001
1.578874e+003,2.616148e+001
1.579838e+003,2.395145e+001
1.580802e+003,2.038643e+001
1.581767e+003,1.783591e+001
1.582731e+003,1.589225e+001
1.583695e+003,1.511477e+001
1.584659e+003,1.650659e+001
1.585624e+003,1.758082e+001
1.586588e+003,1.637745e+001
1.587552e+003,1.502319e+001
1.588516e+003,1.536080e+001
1.589481e+003,1.702298e+001
1.590445e+003,1.872799e+001
1.591409e+003,1.990613e+001
1.592373e+003,2.050686e+001
1.593338e+003,2.059726e+001
1.594302e+003,2.048598e+001
1.595266e+003,2.073882e+001
1.596230e+003,2.138795e+001
1.597194e+003,2.105634e+001
1.598159e+003,1.870538e+001
1.599123e+003,1.656185e+001
1.600087e+003,1.610691e+001
1.601051e+003,1.648092e+001
1.602016e+003,1.703419e+001
1.602980e+003,1.746030e+001
1.603944e+003,1.770787e+001
1.604908e+003,1.807370e+001
1.605873e+003,1.841327e+001
1.606837e+003,1.848977e+001
1.607801e+003,1.849893e+001
1.608765e+003,1.838155e+001
1.609729e+003,1.773399e+001
1.610694e+003,1.680407e+001
1.611658e+003,1.577374e+001
1.612622e+003,1.555015e+001
1.613586e+003,1.766681e+001
1.614551e+003,1.984968e+001
1.615515e+003,1.892341e+001
1.616479e+003,1.686705e+001
1.617443e+003,1.709552e+001
1.618408e+003,1.953834e+001
1.619372e+003,2.150506e+001
1.620336e+003,2.198843e+001
1.621300e+003,2.171397e+001
1.622265e+003,2.084947e+001
1.623229e+003,1.963144e+001
1.624193e+003,1.905041e+001
1.625157e+003,1.903547e+001
1.626121e+003,1.941797e+001
1.627086e+003,2.038481e+001
1.628050e+003,2.160321e+001
1.629014e+003,2.338581e+001
1.629978e+003,2.441302e+001
1.630943e+003,2.308585e+001
1.631907e+003,2.036761e+001
1.632871e+003,1.847961e+001
1.633835e+003,1.815818e+001
1.634800e+003,1.909968e+001
1.635764e+003,2.191207e+001
1.636728e+003,2.485397e+001
1.637692e+003,2.396228e+001
1.638656e+003,1.999973e+001
1.639621e+003,1.943345e+001
1.640585e+003,2.344943e+001
1.641549e+003,2.634638e+001
1.642513e+003,2.643789e+001
1.643478e+003,2.575186e+001
1.644442e+003,2.482875e+001
1.645406e+003,2.386461e+001
1.646370e+003,2.344928e+001
1.647335e+003,2.333716e+001
1.648299e+003,2.249358e+001
1.649263e+003,2.026924e+001
1.650227e+003,1.888210e+001
1.651192e+003,2.113527e+001
1.652156e+003,2.499780e+001
1.653120e+003,2.653200e+001
1.654084e+003,2.603115e+001
1.655048e+003,2.627082e+001
1.656013e+003,2.804143e+001
1.656977e+003,2.861567e+001
1.657941e+003,2.534754e+001
1.658905e+003,2.099517e+001
1.659870e+003,1.933669e+001
1.660834e+003,2.008280e+001
1.661798e+003,2.265902e+001
1.662762e+003,2.685743e+001
1.663727e+003,2.878971e+001
1.664691e+003,2.552726e+001
1.665655e+003,2.138419e+001
1.666619e+003,2.034852e+001
1.667583e+003,2.108749e+001
1.668548e+003,2.055807e+001
1.669512e+003,1.851485e+001
1.670476e+003,1.687517e+001
1.671440e+003,1.655737e+001
1.672405e+003,1.806659e+001
1.673369e+003,2.216386e+001
1.674333e+003,2.693214e+001
1.675297e+003,2.875844e+001
1.676262e+003,2.805299e+001
1.677226e+003,2.719030e+001
1.678190e+003,2.629316e+001
1.679154e+003,2.539864e+001
1.680119e+003,2.391364e+001
1.681083e+003,2.297623e+001
1.682047e+003,2.437597e+001
1.683011e+003,2.676147e+001
1.683975e+003,2.734971e+001
1.684940e+003,2.633662e+001
1.685904e+003,2.628847e+001
1.686868e+003,2.818599e+001
1.687832e+003,3.073919e+001
1.688797e+003,3.265633e+001
1.689761e+003,3.354958e+001
1.690725e+003,3.331795e+001
1.691689e+003,3.207286e+001
1.692654e+003,3.150324e+001
1.693618e+003,3.285267e+001
1.694582e+003,3.404986e+001
1.695546e+003,3.383108e+001
1.696510e+003,3.269908e+001
1.697475e+003,3.110203e+001
1.698439e+003,2.967550e+001
1.699403e+003,2.872374e+001
1.700367e+003,2.855090e+001
1.701332e+003,3.004576e+001
1.702296e+003,3.350802e+001
1.703260e+003,3.743333e+001
1.704224e+003,4.002166e+001
1.705189e+003,4.135740e+001
1.706153e+003,4.287299e+001
1.707117e+003,4.505343e+001
1.708081e+003,4.440322e+001
1.709046e+003,3.942811e+001
1.710010e+003,3.687314e+001
1.710974e+003,3.783507e+001
1.711938e+003,3.954924e+001
1.712902e+003,4.053743e+001
1.713867e+003,4.086106e+001
1.714831e+003,4.125871e+001
1.715795e+003,4.229624e+001
1.716759e+003,4.422920e+001
1.717724e+003,4.688663e+001
1.718688e+003,4.930374e+001
1.719652e+003,5.030367e+001
1.720616e+003,4.992918e+001
1.721581e+003,4.901214e+001
1.722545e+003,4.749127e+001
1.723509e+003,4.672355e+001
1.724473e+003,4.768713e+001
1.725438e+003,4.802900e+001
1.726402e+003,4.587964e+001
1.727366e+003,4.363261e+001
1.728330e+003,4.258471e+001
1.729294e+003,4.266821e+001
1.730259e+003,4.402721e+001
1.731223e+003,4.628749e+001
1.732187e+003,4.829099e+001
1.733151e+003,4.935465e+001
1.734116e+003,4.923158e+001
1.735080e+003,4.764744e+001
1.736044e+003,4.562621e+001
1.737008e+003,4.485808e+001
1.737973e+003,4.497323e+001
1.738937e+003,4.466777e+001
1.739901e+003,4.376861e+001
1.740865e+003,4.270231e+001
1.741829e+003,4.125929e+001
1.742794e+003,4.064932e+001
1.743758e+003,4.317355e+001
1.744722e+003,4.664003e+001
1.745686e+003,4.735893e+001
1.746651e+003,4.546551e+001
1.747615e+003,4.346166e+001
1.748579e+003,4.151712e+001
1.749543e+003,4.041729e+001
1.750508e+003,4.144934e+001
1.751472e+003,4.330297e+001
1.752436e+003,4.461502e+001
1.753400e+003,4.504888e+001
1.754365e+003,4.397674e+001
1.755329e+003,4.174229e+001
1.756293e+003,4.058662e+001
1.757257e+003,4.155984e+001
1.758221e+003,4.307949e+001
1.759186e+003,4.375312e+001
1.760150e+003,4.405789e+001
1.761114e+003,4.426389e+001
1.762078e+003,4.359360e+001
1.763043e+003,4.337653e+001
1.764007e+003,4.469754e+001
1.764971e+003,4.432206e+001
1.765935e+003,4.099764e+001
1.766900e+003,3.861468e+001
1.767864e+003,4.004420e+001
1.768828e+003,4.247963e+001
1.769792e+003,4.214239e+001
1.770756e+003,3.982485e+001
1.771721e+003,3.874063e+001
1.772685e+003,3.962613e+001
1.773649e+003,4.051716e+001
1.774613e+003,4.022458e+001
1.775578e+003,3.973454e+001
1.776542e+003,4.036197e+001
1.777506e+003,4.192499e+001
1.778470e+003,4.220309e+001
1.779435e+003,4.029592e+001
1.780399e+003,3.898841e+001
1.781363e+003,3.980412e+001
1.782327e+003,4.076812e+001
1.783292e+003,4.034514e+001
1.784256e+003,3.927194e+001
1.785220e+003,3.829858e+001
1.786184e+003,3.802777e+001
1.787148e+003,3.954388e+001
1.788113e+003,4.230692e+001
1.789077e+003,4.274883e+001
1.790041e+003,3.840197e+001
1.791005e+003,3.312486e+001
1.791970e+003,3.121779e+001
1.792934e+003,3.185764e+001
1.793898e+003,3.293155e+001
1.794862e+003,3.427058e+001
1.795827e+003,3.589299e+001
1.796791e+003,3.772424e+001
1.797755e+003,3.866063e+001
1.798719e+003,3.813272e+001
1.799683e+003,3.720971e+001
1.800648e+003,3.698638e+001
1.801612e+003,3.676262e+001
1.802576e+003,3.442488e+001
1.803540e+003,2.971610e+001
1.804505e+003,2.752933e+001
1.805469e+003,3.079988e+001
1.806433e+003,3.446636e+001
1.807397e+003,3.707111e+001
1.808362e+003,3.848974e+001
1.809326e+003,3.831120e+001
1.810290e+003,3.733246e+001
1.811254e+003,3.639503e+001
1.812219e+003,3.579633e+001
1.813183e+003,3.565562e+001
1.814147e+003,3.566510e+001
1.815111e+003,3.520782e+001
1.816075e+003,3.429918e+001
1.817040e+003,3.365297e+001
1.818004e+003,3.364542e+001
1.818968e+003,3.423831e+001
1.819932e+003,3.528151e+001
1.820897e+003,3.601597e+001
1.821861e+003,3.625103e+001
1.822825e+003,3.684434e+001
1.823789e+003,3.626809e+001
1.824754e+003,3.366911e+001
1.825718e+003,3.153844e+001
1.826682e+003,3.045097e+001
1.827646e+003,3.029511e+001
1.828610e+003,3.229702e+001
1.829575e+003,3.602298e+001
1.830539e+003,3.746278e+001
1.831503e+003,3.447178e+001
1.832467e+003,3.154662e+001
1.833432e+003,3.280791e+001
1.834396e+003,3.551754e+001
1.835360e+003,3.625200e+001
1.836324e+003,3.604840e+001
1.837289e+003,3.656218e+001
1.838253e+003,3.732424e+001
1.839217e+003,3.724943e+001
1.840181e+003,3.618187e+001
1.841146e+003,3.519424e+001
1.842110e+003,3.525226e+001
1.843074e+003,3.651979e+001
1.844038e+003,3.901149e+001
1.845002e+003,4.252166e+001
1.845967e+003,4.450166e+001
1.846931e+003,4.472689e+001
1.847895e+003,4.409389e+001
1.848859e+003,4.060778e+001
1.849824e+003,3.714809e+001
1.850788e+003,3.560836e+001
1.851752e+003,3.464808e+001
1.852716e+003,3.303837e+001
1.853681e+003,3.201312e+001
1.854645e+003,3.337194e+001
1.855609e+003,3.643303e+001
1.856573e+003,3.856916e+001
1.857537e+003,3.842971e+001
1.858502e+003,3.737947e+001
1.859466e+003,3.748315e+001
1.860430e+003,3.856099e+001
1.861394e+003,3.861477e+001
1.862359e+003,3.753492e+001
1.863323e+003,3.749065e+001
1.864287e+003,3.858454e+001
1.865251e+003,3.889661e+001
1.866216e+003,3.819487e+001
1.867180e+003,3.823372e+001
1.868144e+003,3.990915e+001
1.869108e+003,4.136282e+001
1.870073e+003,4.042750e+001
1.871037e+003,3.799485e+001
1.872001e+003,3.720817e+001
1.872965e+003,3.865689e+001
1.873929e+003,3.923085e+001
1.874894e+003,3.690213e+001
1.875858e+003,3.475022e+001
1.876822e+003,3.430563e+001
1.877786e+003,3.461327e+001
1.878751e+003,3.492493e+001
1.879715e+003,3.554334e+001
1.880679e+003,3.708672e+001
1.881643e+003,3.904604e+001
1.882608e+003,4.021060e+001
1.883572e+003,4.028048e+001
1.884536e+003,3.999530e+001
1.885500e+003,3.980721e+001
1.886464e+003,3.944894e+001
1.887429e+003,3.873738e+001
1.888393e+003,3.833867e+001
1.889357e+003,4.009486e+001
1.890321e+003,4.397834e+001
1.891286e+003,4.556988e+001
1.892250e+003,4.357479e+001
1.893214e+003,4.100486e+001
1.894178e+003,3.908511e+001
1.895143e+003,3.849324e+001
1.896107e+003,4.004624e+001
1.897071e+003,4.227189e+001
1.898035e+003,4.223190e+001
1.899000e+003,3.964741e+001
1.899964e+003,3.736453e+001
1.900928e+003,3.720053e+001
1.901892e+003,3.818770e+001
1.902856e+003,4.002068e+001
1.903821e+003,4.117493e+001
1.904785e+003,3.971051e+001
1.905749e+003,3.759208e+001
1.906713e+003,3.802741e+001
1.907678e+003,4.002443e+001
1.908642e+003,4.044825e+001
1.909606e+003,3.895213e+001
1.910570e+003,3.752601e+001
1.911535e+003,3.731056e+001
1.912499e+003,3.831641e+001
1.913463e+003,4.046958e+001
1.914427e+003,4.205053e+001
1.915391e+003,3.973895e+001
1.916356e+003,3.478354e+001
1.917320e+003,3.308203e+001
1.918284e+003,3.507991e+001
1.919248e+003,3.727522e+001
1.920213e+003,3.819439e+001
1.921177e+003,3.862648e+001
1.922141e+003,3.951369e+001
1.923105e+003,4.026606e+001
1.924070e+003,3.989964e+001
1.925034e+003,3.888831e+001
1.925998e+003,3.879584e+001
1.926962e+003,3.965685e+001
1.927927e+003,3.956856e+001
1.928891e+003,3.798141e+001
1.929855e+003,3.670425e+001
1.930819e+003,3.551155e+001
1.931783e+003,3.485563e+001
1.932748e+003,3.619835e+001
1.933712e+003,3.764634e+001
1.934676e+003,3.716267e+001
1.935640e+003,3.530826e+001
1.936605e+003,3.257450e+001
1.937569e+003,2.953354e+001
1.938533e+003,2.843969e+001
1.939497e+003,3.081507e+001
1.940462e+003,3.406086e+001
1.941426e+003,3.484130e+001
1.942390e+003,3.434536e+001
1.943354e+003,3.541220e+001
1.944318e+003,3.691098e+001
1.945283e+003,3.614942e+001
1.946247e+003,3.396457e+001
1.947211e+003,3.307626e+001
1.948175e+003,3.408645e+001
1.949140e+003,3.488281e+001
1.950104e+003,3.370387e+001
1.951068e+003,3.180476e+001
1.952032e+003,3.113257e+001
1.952997e+003,3.153513e+001
1.953961e+003,3.203184e+001
1.954925e+003,3.265983e+001
1.955889e+003,3.223195e+001
1.956854e+003,2.988841e+001
1.957818e+003,2.838384e+001
1.958782e+003,2.799968e+001
1.959746e+003,2.885396e+001
1.960710e+003,3.082450e+001
1.961675e+003,3.256932e+001
1.962639e+003,3.423630e+001
1.963603e+003,3.551691e+001
1.964567e+003,3.529451e+001
1.965532e+003,3.382997e+001
1.966496e+003,3.280779e+001
1.967460e+003,3.272896e+001
1.968424e+003,3.294077e+001
1.969389e+003,3.307901e+001
1.970353e+003,3.339454e+001
1.971317e+003,3.483474e+001
1.972281e+003,3.615567e+001
1.973245e+003,3.554189e+001
1.974210e+003,3.373693e+001
1.975174e+003,3.158540e+001
1.976138e+003,2.969428e+001
1.977102e+003,2.997009e+001
1.978067e+003,3.281155e+001
1.979031e+003,3.560202e+001
1.979995e+003,3.625937e+001
1.980959e+003,3.546461e+001
1.981924e+003,3.432450e+001
1.982888e+003,3.314903e+001
1.983852e+003,3.243045e+001
1.984816e+003,3.193098e+001
1.985781e+003,3.084042e+001
1.986745e+003,2.927072e+001
1.987709e+003,2.899733e+001
1.988673e+003,3.037034e+001
1.989637e+003,3.202313e+001
1.990602e+003,3.309619e+001
1.991566e+003,3.362546e+001
1.992530e+003,3.455914e+001
1.993494e+003,3.610505e+001
1.994459e+003,3.582892e+001
1.995423e+003,3.245915e+001
1.996387e+003,3.009198e+001
1.997351e+003,2.915003e+001
1.998316e+003,2.805596e+001
1.999280e+003,2.599258e+001
2.000244e+003,2.560032e+001
2.001208e+003,2.980351e+001
2.002172e+003,3.463119e+001
2.003137e+003,3.582818e+001
2.004101e+003,3.425977e+001
2.005065e+003,3.216613e+001
2.006029e+003,3.052830e+001
2.006994e+003,3.074542e+001
2.007958e+003,3.336988e+001
2.008922e+003,3.522320e+001
2.009886e+003,3.457792e+001
2.010851e+003,3.313469e+001
2.011815e+003,3.105120e+001
2.012779e+003,2.925230e+001
2.013743e+003,2.998542e+001
2.014708e+003,3.209529e+001
2.015672e+003,3.255037e+001
2.016636e+003,3.121502e+001
2.017600e+003,2.998519e+001
2.018564e+003,2.963834e+001
2.019529e+003,3.001919e+001
2.020493e+003,3.132971e+001
2.021457e+003,3.326973e+001
2.022421e+003,3.482400e+001
2.023386e+003,3.561524e+001
2.024350e+003,3.485777e+001
2.025314e+003,3.268036e+001
2.026278e+003,3.076287e+001
2.027243e+003,2.938425e+001
2.028207e+003,2.944184e+001
2.029171e+003,3.134883e+001
2.030135e+003,3.326026e+001
2.031099e+003,3.372044e+001
2.032064e+003,3.385365e+001
2.033028e+003,3.553908e+001
2.033992e+003,3.773597e+001
2.034956e+003,3.747855e+001
2.035921e+003,3.528637e+001
2.036885e+003,3.403704e+001
2.037849e+003,3.358268e+001
2.038813e+003,3.464576e+001
2.039778e+003,3.756612e+001
2.040742e+003,3.816408e+001
2.041706e+003,3.402319e+001
2.042670e+003,2.994570e+001
2.043635e+003,2.991702e+001
2.044599e+003,3.202083e+001
2.045563e+003,3.362426e+001
2.046527e+003,3.445381e+001
2.047491e+003,3.329152e+001
2.048456e+003,2.918213e+001
2.049420e+003,2.709891e+001
2.050384e+003,2.894658e+001
2.051348e+003,3.092784e+001
2.052313e+003,3.222757e+001
2.053277e+003,3.304034e+001
2.054241e+003,3.284992e+001
2.055205e+003,3.308807e+001
2.056170e+003,3.597221e+001
2.057134e+003,3.953857e+001
2.058098e+003,3.944812e+001
2.059062e+003,3.573943e+001
2.060027e+003,3.313711e+001
2.060991e+003,3.397367e+001
2.061955e+003,3.570530e+001
2.062919e+003,3.634609e+001
2.063884e+003,3.596740e+001
2.064848e+003,3.471808e+001
2.065812e+003,3.354773e+001
2.066776e+003,3.348911e+001
2.067740e+003,3.377362e+001
2.068705e+003,3.273603e+001
2.069669e+003,3.058472e+001
2.070633e+003,2.947892e+001
2.071597e+003,3.021685e+001
2.072562e+003,3.141595e+001
2.073526e+003,3.245665e+001
2.074490e+003,3.321815e+001
2.075454e+003,3.170986e+001
2.076418e+003,2.841304e+001
2.077383e+003,2.701929e+001
2.078347e+003,2.689914e+001
2.079311e+003,2.717057e+001
2.080275e+003,2.889071e+001
2.081240e+003,3.070765e+001
2.082204e+003,3.145083e+001
2.083168e+003,3.144601e+001
2.084132e+003,3.067586e+001
2.085096e+003,2.972252e+001
2.086061e+003,3.013293e+001
2.087025e+003,3.123798e+001
2.087989e+003,2.962334e+001
2.088953e+003,2.515748e+001
2.089918e+003,2.272872e+001
2.090882e+003,2.258510e+001
2.091846e+003,2.329217e+001
2.092810e+003,2.524825e+001
2.093775e+003,2.664962e+001
2.094739e+003,2.637757e+001
2.095703e+003,2.583446e+001
2.096667e+003,2.636902e+001
2.097632e+003,2.682105e+001
2.098596e+003,2.551470e+001
2.099560e+003,2.333638e+001
2.100524e+003,2.247287e+001
2.101489e+003,2.242953e+001
2.102453e+003,2.223994e+001
2.103417e+003,2.234696e+001
2.104381e+003,2.244352e+001
2.105345e+003,2.230447e+001
2.106310e+003,2.274128e+001
2.107274e+003,2.524612e+001
2.108238e+003,2.723959e+001
2.109202e+003,2.549239e+001
2.110167e+003,2.257512e+001
2.111131e+003,2.231622e+001
2.112095e+003,2.385059e+001
2.113059e+003,2.439366e+001
2.114023e+003,2.464460e+001
2.114988e+003,2.552126e+001
2.115952e+003,2.646797e+001
2.116916e+003,2.581243e+001
2.117880e+003,2.192927e+001
2.118845e+003,1.863326e+001
2.119809e+003,1.941162e+001
2.120773e+003,2.190275e+001
2.121737e+003,2.332012e+001
2.122702e+003,2.358892e+001
2.123666e+003,2.331413e+001
2.124630e+003,2.259687e+001
2.125594e+003,2.180410e+001
2.126559e+003,2.122316e+001
2.127523e+003,2.041009e+001
2.128487e+003,1.881874e+001
2.129451e+003,1.835928e+001
2.130416e+003,2.017286e+001
2.131380e+003,2.242351e+001
2.132344e+003,2.458997e+001
2.133308e+003,2.590827e+001
2.134272e+003,2.469317e+001
2.135237e+003,2.197439e+001
2.136201e+003,2.042612e+001
2.137165e+003,2.037265e+001
2.138129e+003,2.004207e+001
2.139094e+003,1.891972e+001
2.140058e+003,1.822997e+001
2.141022e+003,1.817515e+001
2.141986e+003,1.838802e+001
2.142950e+003,1.932139e+001
2.143915e+003,2.046129e+001
2.144879e+003,2.147922e+001
2.145843e+003,2.164613e+001
2.146807e+003,1.967263e+001
2.147772e+003,1.699361e+001
2.148736e+003,1.595020e+001
2.149700e+003,1.653305e+001
2.150664e+003,1.780082e+001
2.151629e+003,1.937137e+001
2.152593e+003,2.010542e+001
2.153557e+003,1.935343e+001
2.154521e+003,1.776371e+001
2.155486e+003,1.434146e+001
2.156450e+003,1.085236e+001
2.157414e+003,1.117636e+001
2.158378e+003,1.353250e+001
2.159343e+003,1.423731e+001
2.160307e+003,1.342418e+001
2.161271e+003,1.249065e+001
2.162235e+003,1.182024e+001
2.163199e+003,1.165792e+001
2.164164e+003,1.215478e+001
2.165128e+003,1.263483e+001
2.166092e+003,1.245824e+001
2.167056e+003,1.250754e+001
2.168021e+003,1.415361e+001
2.168985e+003,1.569714e+001
2.169949e+003,1.413261e+001
2.170913e+003,1.112226e+001
2.171877e+003,1.017697e+001
2.172842e+003,1.159573e+001
2.173806e+003,1.508381e+001
2.174770e+003,1.943210e+001
2.175734e+003,2.071147e+001
2.176699e+003,1.727591e+001
2.177663e+003,1.251661e+001
2.178627e+003,9.320107e+000
2.179591e+003,7.868755e+000
2.180556e+003,9.063564e+000
2.181520e+003,1.106549e+001
2.182484e+003,9.645466e+000
2.183448e+003,6.728657e+000
2.184413e+003,7.258728e+000
2.185377e+003,1.069822e+001
2.186341e+003,1.397142e+001
2.187305e+003,1.595975e+001
2.188270e+003,1.550313e+001
2.189234e+003,1.259831e+001
2.190198e+003,1.001049e+001
2.191162e+003,9.527504e+000
2.192126e+003,9.572948e+000
2.193091e+003,8.691685e+000
2.194055e+003,7.592140e+000
2.195019e+003,7.552879e+000
2.195983e+003,8.496086e+000
2.196948e+003,9.518074e+000
2.197912e+003,1.039417e+001
2.198876e+003,1.104655e+001
2.199840e+003,1.118879e+001
2.200804e+003,1.015236e+001
2.201769e+003,7.835033e+000
2.202733e+003,5.560169e+000
2.203697e+003,4.565319e+000
2.204661e+003,4.820023e+000
2.205626e+003,6.527466e+000
2.206590e+003,8.568272e+000
2.207554e+003,7.847527e+000
2.208518e+003,5.119984e+000
2.209483e+003,3.096832e+000
2.210447e+003,2.307743e+000
2.211411e+003,3.636120e+000
2.212375e+003,6.526497e+000
2.213340e+003,8.132309e+000
2.214304e+003,7.758980e+000
2.215268e+003,7.580154e+000
2.216232e+003,8.625553e+000
2.217197e+003,8.900246e+000
2.218161e+003,6.511166e+000
2.219125e+003,3.242428e+000
2.220089e+003,2.063274e+000
2.221053e+003,2.518257e+000
2.222018e+003,2.390102e+000
2.222982e+003,1.474571e+000
2.223946e+003,1.447021e+000
2.224910e+003,2.655483e+000
2.225875e+003,3.892368e+000
2.226839e+003,4.573208e+000
2.227803e+003,4.557617e+000
2.228767e+003,3.779564e+000
2.229731e+003,3.777493e+000
2.230696e+003,6.492504e+000
2.231660e+003,9.197186e+000
2.232624e+003,7.975891e+000
2.233588e+003,5.449886e+000
2.234553e+003,5.228188e+000
2.235517e+003,6.267826e+000
2.236481e+003,6.715046e+000
2.237445e+003,6.105968e+000
2.238410e+003,4.464706e+000
2.239374e+003,2.609631e+000
2.240338e+003,2.366104e+000
2.241302e+003,4.007023e+000
2.242267e+003,4.866859e+000
2.243231e+003,3.044918e+000
2.244195e+003,1.075619e+000
2.245159e+003,1.166908e+000
2.246124e+003,2.335335e+000
2.247088e+003,4.383995e+000
2.248052e+003,6.075638e+000
2.249016e+003,5.681206e+000
2.249980e+003,4.282364e+000
2.250945e+003,3.775112e+000
2.251909e+003,4.176105e+000
2.252873e+003,4.108696e+000
2.253837e+003,3.063488e+000
2.254802e+003,1.778702e+000
2.255766e+003,8.083496e-001
2.256730e+003,1.176849e+000
2.257694e+003,4.976791e+000
2.258658e+003,7.729534e+000
2.259623e+003,4.436546e+000
2.260587e+003,2.499275e-001
2.261551e+003,0.000000e+000
2.262515e+003,1.960991e+000
2.263480e+003,4.713406e+000
2.264444e+003,7.389328e+000
2.265408e+003,8.067928e+000
2.266372e+003,6.943768e+000
2.267337e+003,7.192883e+000
2.268301e+003,9.840790e+000
2.269265e+003,1.118948e+001
2.270229e+003,1.012953e+001
2.271194e+003,9.376930e+000
2.272158e+003,8.265617e+000
2.273122e+003,6.940113e+000
2.274086e+003,6.006313e+000
2.275051e+003,5.474228e+000
2.276015e+003,6.058834e+000
2.276979e+003,7.298874e+000
2.277943e+003,8.203815e+000
2.278907e+003,8.562965e+000
2.279872e+003,8.173016e+000
2.280836e+003,6.837975e+000
2.281800e+003,6.329643e+000
2.282764e+003,7.679817e+000
2.283729e+003,9.549564e+000
2.284693e+003,1.330931e+001
2.285657e+003,1.610218e+001
2.286621e+003,1.512185e+001
2.287585e+003,1.330452e+001
2.288550e+003,1.348772e+001
2.289514e+003,1.354023e+001
2.290478e+003,9.616344e+000
2.291442e+003,5.354061e+000
2.292407e+003,7.447536e+000
2.293371e+003,1.417107e+001
2.294335e+003,1.771061e+001
2.295299e+003,1.765694e+001
2.296264e+003,1.624242e+001
2.297228e+003,1.290558e+001
2.298192e+003,1.028814e+001
2.299156e+003,8.787998e+000
2.300121e+003,8.777946e+000
2.301085e+003,9.908024e+000
2.302049e+003,1.144799e+001
2.303013e+003,1.359719e+001
2.303978e+003,1.595969e+001
2.304942e+003,1.790171e+001
2.305906e+003,1.929184e+001
2.306870e+003,2.027386e+001
2.307834e+003,2.075965e+001
2.308799e+003,1.928937e+001
2.309763e+003,1.584208e+001
2.310727e+003,1.671473e+001
2.311691e+003,2.203261e+001
2.312656e+003,2.494483e+001
2.313620e+003,2.421934e+001
2.314584e+003,2.284942e+001
2.315548e+003,2.201563e+001
2.316512e+003,2.203930e+001
2.317477e+003,2.352242e+001
2.318441e+003,2.502609e+001
2.319405e+003,2.382688e+001
2.320369e+003,2.168464e+001
2.321334e+003,2.289127e+001
2.322298e+003,2.589708e+001
2.323262e+003,2.777971e+001
2.324226e+003,2.970809e+001
2.325191e+003,3.316929e+001
2.326155e+003,3.753990e+001
2.327119e+003,4.194822e+001
2.328083e+003,4.544245e+001
2.329048e+003,4.554506e+001
2.330012e+003,4.225375e+001
2.330976e+003,3.969031e+001
2.331940e+003,3.970999e+001
2.332905e+003,4.055534e+001
2.333869e+003,4.251335e+001
2.334833e+003,4.415956e+001
2.335797e+003,4.267002e+001
2.336761e+003,4.129973e+001
2.337726e+003,4.395481e+001
2.338690e+003,4.747889e+001
2.339654e+003,4.764810e+001
2.340618e+003,4.625919e+001
2.341583e+003,4.720546e+001
2.342547e+003,5.079552e+001
2.343511e+003,5.497235e+001
2.344475e+003,5.890430e+001
2.345439e+003,6.176359e+001
2.346404e+003,6.309662e+001
2.347368e+003,6.330000e+001
2.348332e+003,6.175226e+001
2.349296e+003,6.155705e+001
2.350261e+003,6.506177e+001
2.351225e+003,6.923260e+001
2.352189e+003,7.075182e+001
2.353153e+003,7.186904e+001
2.354118e+003,7.676982e+001
2.355082e+003,8.256413e+001
2.356046e+003,8.249757e+001
2.357010e+003,7.794115e+001
2.357975e+003,7.829926e+001
2.358939e+003,8.497156e+001
2.359903e+003,8.980215e+001
2.360867e+003,9.115471e+001
2.361832e+003,9.211774e+001
2.362796e+003,9.392802e+001
2.363760e+003,9.671303e+001
2.364724e+003,1.009411e+002
2.365688e+003,1.059072e+002
2.366653e+003,1.103125e+002
2.367617e+003,1.135819e+002
2.368581e+003,1.159263e+002
2.369545e+003,1.174935e+002
2.370510e+003,1.180163e+002
2.371474e+003,1.182960e+002
2.372438e+003,1.207495e+002
2.373402e+003,1.245750e+002
2.374366e+003,1.267401e+002
2.375331e+003,1.277662e+002
2.376295e+003,1.309178e+002
2.377259e+003,1.359011e+002
2.378223e+003,1.389351e+002
2.379188e+003,1.390634e+002
2.380152e+003,1.382805e+002
2.381116e+003,1.377887e+002
2.382080e+003,1.383559e+002
2.383045e+003,1.408439e+002
2.384009e+003,1.431004e+002
2.384973e+003,1.426962e+002
2.385937e+003,1.421390e+002
2.386902e+003,1.449330e+002
2.387866e+003,1.485700e+002
2.388830e+003,1.486859e+002
2.389794e+003,1.471145e+002
2.390759e+003,1.471924e+002
2.391723e+003,1.486203e+002
2.392687e+003,1.506223e+002
2.393651e+003,1.533438e+002
2.394615e+003,1.547215e+002
2.395580e+003,1.531270e+002
2.396544e+003,1.529479e+002
2.397508e+003,1.567396e+002
2.398472e+003,1.584959e+002
2.399437e+003,1.565379e+002
2.400401e+003,1.550263e+002
2.401365e+003,1.542433e+002
2.402329e+003,1.549962e+002
2.403293e+003,1.585499e+002
2.404258e+003,1.621304e+002
2.405222e+003,1.629636e+002
2.406186e+003,1.626321e+002
2.407150e+003,1.637857e+002
2.408115e+003,1.659568e+002
2.409079e+003,1.673689e+002
2.410043e+003,1.680093e+002
2.411007e+003,1.688958e+002
2.411972e+003,1.702102e+002
2.412936e+003,1.723497e+002
2.413900e+003,1.748069e+002
2.414864e+003,1.763150e+002
2.415829e+003,1.769293e+002
2.416793e+003,1.763400e+002
2.417757e+003,1.742552e+002
2.418721e+003,1.731653e+002
2.419686e+003,1.755881e+002
2.420650e+003,1.784967e+002
2.421614e+003,1.780947e+002
2.422578e+003,1.768788e+002
2.423542e+003,1.766421e+002
2.424507e+003,1.774589e+002
2.425471e+003,1.817511e+002
2.426435e+003,1.862643e+002
2.427399e+003,1.848268e+002
2.428364e+003,1.798027e+002
2.429328e+003,1.781700e+002
2.430292e+003,1.803253e+002
2.431256e+003,1.808032e+002
2.432220e+003,1.782719e+002
2.433185e+003,1.768477e+002
2.434149e+003,1.766934e+002
2.435113e+003,1.770181e+002
2.436077e+003,1.789472e+002
2.437042e+003,1.799096e+002
2.438006e+003,1.800522e+002
2.438970e+003,1.770764e+002
2.439934e+003,1.681276e+002
2.440899e+003,1.615879e+002
2.441863e+003,1.651024e+002
2.442827e+003,1.717904e+002
2.443791e+003,1.712219e+002
2.444756e+003,1.657415e+002
2.445720e+003,1.626544e+002
2.446684e+003,1.615446e+002
2.447648e+003,1.604764e+002
2.448613e+003,1.594164e+002
2.449577e+003,1.578477e+002
2.450541e+003,1.558674e+002
2.451505e+003,1.540185e+002
2.452469e+003,1.523697e+002
2.453434e+003,1.499388e+002
2.454398e+003,1.461687e+002
2.455362e+003,1.428988e+002
2.456326e+003,1.422990e+002
2.457291e+003,1.427658e+002
2.458255e+003,1.419231e+002
2.459219e+003,1.416452e+002
2.460183e+003,1.425224e+002
2.461147e+003,1.431537e+002
2.462112e+003,1.449901e+002
2.463076e+003,1.464219e+002
2.464040e+003,1.450859e+002
2.465004e+003,1.416724e+002
2.465969e+003,1.373949e+002
2.466933e+003,1.336311e+002
2.467897e+003,1.313625e+002
2.468861e+003,1.299301e+002
2.469826e+003,1.294905e+002
2.470790e+003,1.304756e+002
2.471754e+003,1.305180e+002
2.472718e+003,1.299279e+002
2.473683e+003,1.303060e+002
2.474647e+003,1.309579e+002
2.475611e+003,1.307395e+002
2.476575e+003,1.299559e+002
2.477540e+003,1.281797e+002
2.478504e+003,1.250134e+002
2.479468e+003,1.212449e+002
2.480432e+003,1.174602e+002
2.481396e+003,1.158468e+002
2.482361e+003,1.205503e+002
2.483325e+003,1.259431e+002
2.484289e+003,1.244345e+002
2.485253e+003,1.206734e+002
2.486218e+003,1.193608e+002
2.487182e+003,1.188831e+002
2.488146e+003,1.178121e+002
2.489110e+003,1.166036e+002
2.490074e+003,1.156158e+002
2.491039e+003,1.153305e+002
2.492003e+003,1.162736e+002
2.492967e+003,1.174715e+002
2.493931e+003,1.174239e+002
2.494896e+003,1.168028e+002
2.495860e+003,1.159952e+002
2.496824e+003,1.150833e+002
2.497788e+003,1.143219e+002
2.498753e+003,1.132894e+002
2.499717e+003,1.124854e+002
2.500681e+003,1.123499e+002
2.501645e+003,1.112569e+002
2.502610e+003,1.081881e+002
2.503574e+003,1.059409e+002
2.504538e+003,1.071786e+002
2.505502e+003,1.100149e+002
2.506467e+003,1.116444e+002
2.507431e+003,1.121617e+002
2.508395e+003,1.123501e+002
2.509359e+003,1.124725e+002
2.510323e+003,1.123794e+002
2.511288e+003,1.123506e+002
2.512252e+003,1.136952e+002
2.513216e+003,1.147728e+002
2.514180e+003,1.117248e+002
2.515145e+003,1.066232e+002
2.516109e+003,1.056916e+002
2.517073e+003,1.092587e+002
2.518037e+003,1.120874e+002
2.519001e+003,1.139298e+002
2.519966e+003,1.139100e+002
2.520930e+003,1.111758e+002
2.521894e+003,1.089057e+002
2.522858e+003,1.070902e+002
2.523823e+003,1.074401e+002
2.524787e+003,1.105655e+002
2.525751e+003,1.136441e+002
2.526715e+003,1.154827e+002
2.527680e+003,1.155820e+002
2.528644e+003,1.136498e+002
2.529608e+003,1.117942e+002
2.530572e+003,1.118945e+002
2.531537e+003,1.126141e+002
2.532501e+003,1.130837e+002
2.533465e+003,1.134752e+002
2.534429e+003,1.148876e+002
2.535394e+003,1.157716e+002
2.536358e+003,1.121375e+002
2.537322e+003,1.070489e+002
2.538286e+003,1.059431e+002
2.539250e+003,1.077063e+002
2.540215e+003,1.085406e+002
2.541179e+003,1.080282e+002
2.542143e+003,1.071874e+002
2.543107e+003,1.067639e+002
2.544072e+003,1.070086e+002
2.545036e+003,1.072388e+002
2.546000e+003,1.075248e+002
2.546964e+003,1.078018e+002
2.547928e+003,1.077765e+002
2.548893e+003,1.073618e+002
2.549857e+003,1.073059e+002
2.550821e+003,1.080108e+002
2.551785e+003,1.078705e+002
2.552750e+003,1.058720e+002
2.553714e+003,1.032879e+002
2.554678e+003,1.011827e+002
2.555642e+003,1.001302e+002
2.556607e+003,1.002979e+002
2.557571e+003,1.007764e+002
2.558535e+003,1.025944e+002
2.559499e+003,1.029884e+002
2.560464e+003,9.822232e+001
2.561428e+003,9.328104e+001
2.562392e+003,9.413504e+001
2.563356e+003,9.688441e+001
2.564321e+003,9.358678e+001
2.565285e+003,8.723761e+001
2.566249e+003,8.783348e+001
2.567213e+003,9.471036e+001
2.568177e+003,9.659428e+001
2.569142e+003,9.343439e+001
2.570106e+003,9.071465e+001
2.571070e+003,8.908815e+001
2.572034e+003,8.898080e+001
2.572999e+003,9.015359e+001
2.573963e+003,9.004732e+001
2.574927e+003,8.794456e+001
2.575891e+003,8.643042e+001
2.576855e+003,8.637596e+001
2.577820e+003,8.601083e+001
2.578784e+003,8.545648e+001
2.579748e+003,8.455554e+001
2.580712e+003,8.304803e+001
2.581677e+003,8.108322e+001
2.582641e+003,7.609276e+001
2.583605e+003,7.239354e+001
2.584569e+003,7.385739e+001
2.585534e+003,7.617122e+001
2.586498e+003,7.721315e+001
2.587462e+003,7.753658e+001
2.588426e+003,7.736353e+001
2.589391e+003,7.673489e+001
2.590355e+003,7.609866e+001
2.591319e+003,7.559415e+001
2.592283e+003,7.608801e+001
2.593248e+003,7.648898e+001
2.594212e+003,7.182767e+001
2.595176e+003,6.519344e+001
2.596140e+003,6.457762e+001
2.597104e+003,6.748866e+001
2.598069e+003,6.692163e+001
2.599033e+003,6.348253e+001
2.599997e+003,6.262630e+001
2.600961e+003,6.496048e+001
2.601926e+003,6.512496e+001
2.602890e+003,6.096924e+001
2.603854e+003,5.943130e+001
2.604818e+003,6.204532e+001
2.605782e+003,6.366298e+001
2.606747e+003,6.473925e+001
2.607711e+003,6.377839e+001
2.608675e+003,6.003932e+001
2.609639e+003,5.854596e+001
2.610604e+003,6.117868e+001
2.611568e+003,6.429405e+001
2.612532e+003,6.557529e+001
2.613496e+003,6.561153e+001
2.614461e+003,6.449236e+001
2.615425e+003,6.311510e+001
2.616389e+003,6.277812e+001
2.617353e+003,6.263509e+001
2.618318e+003,6.302818e+001
2.619282e+003,6.260960e+001
2.620246e+003,5.925095e+001
2.621210e+003,5.689105e+001
2.622175e+003,5.886623e+001
2.623139e+003,6.205989e+001
2.624103e+003,6.337182e+001
2.625067e+003,6.263833e+001
2.626031e+003,6.078629e+001
2.626996e+003,5.920584e+001
2.627960e+003,5.839673e+001
2.628924e+003,5.748520e+001
2.629888e+003,5.633011e+001
2.630853e+003,5.485140e+001
2.631817e+003,5.349609e+001
2.632781e+003,5.375905e+001
2.633745e+003,5.632655e+001
2.634709e+003,5.916150e+001
2.635674e+003,5.976779e+001
2.636638e+003,5.807646e+001
2.637602e+003,5.588486e+001
2.638566e+003,5.467177e+001
2.639531e+003,5.435233e+001
2.640495e+003,5.354753e+001
2.641459e+003,5.264848e+001
2.642423e+003,5.202638e+001
2.643388e+003,5.202890e+001
2.644352e+003,5.246036e+001
2.645316e+003,5.309591e+001
2.646280e+003,5.376964e+001
2.647245e+003,5.352930e+001
2.648209e+003,5.264002e+001
2.649173e+003,5.214561e+001
2.650137e+003,5.181135e+001
2.651102e+003,5.158279e+001
2.652066e+003,4.962483e+001
2.653030e+003,4.834069e+001
2.653994e+003,5.399793e+001
2.654958e+003,5.885329e+001
2.655923e+003,5.563562e+001
2.656887e+003,5.126804e+001
2.657851e+003,5.052240e+001
2.658815e+003,5.052270e+001
2.659780e+003,4.904826e+001
2.660744e+003,4.700299e+001
2.661708e+003,4.563692e+001
2.662672e+003,4.529609e+001
2.663636e+003,4.766130e+001
2.664601e+003,5.099098e+001
2.665565e+003,4.877706e+001
2.666529e+003,4.423463e+001
2.667493e+003,4.471940e+001
2.668458e+003,4.817535e+001
2.669422e+003,4.931903e+001
2.670386e+003,4.775896e+001
2.671350e+003,4.598122e+001
2.672315e+003,4.527903e+001
2.673279e+003,4.513638e+001
2.674243e+003,4.463630e+001
2.675207e+003,4.368137e+001
2.676172e+003,4.248961e+001
2.677136e+003,4.080540e+001
2.678100e+003,3.897334e+001
2.679064e+003,3.830423e+001
2.680029e+003,3.821482e+001
2.680993e+003,3.837124e+001
2.681957e+003,3.901714e+001
2.682921e+003,3.881868e+001
2.683885e+003,3.692830e+001
2.684850e+003,3.587811e+001
2.685814e+003,3.849648e+001
2.686778e+003,4.080612e+001
2.687742e+003,3.940285e+001
2.688707e+003,3.858307e+001
2.689671e+003,3.887752e+001
2.690635e+003,3.826596e+001
2.691599e+003,3.700667e+001
2.692563e+003,3.572881e+001
2.693528e+003,3.474451e+001
2.694492e+003,3.372029e+001
2.695456e+003,3.227184e+001
2.696420e+003,3.108852e+001
2.697385e+003,3.103263e+001
2.698349e+003,3.116788e+001
2.699313e+003,3.023353e+001
2.700277e+003,2.977915e+001
2.701242e+003,3.095488e+001
2.702206e+003,3.176719e+001
2.703170e+003,3.182435e+001
2.704134e+003,3.056228e+001
2.705099e+003,2.622074e+001
2.706063e+003,2.272304e+001
2.707027e+003,2.423839e+001
2.707991e+003,2.786505e+001
2.708956e+003,2.786206e+001
2.709920e+003,2.512333e+001
2.710884e+003,2.409504e+001
2.711848e+003,2.467818e+001
2.712813e+003,2.581184e+001
2.713777e+003,2.735906e+001
2.714741e+003,2.783887e+001
2.715705e+003,2.654402e+001
2.716669e+003,2.486475e+001
2.717634e+003,2.359855e+001
2.718598e+003,2.271929e+001
2.719562e+003,2.265582e+001
2.720526e+003,2.148722e+001
2.721490e+003,1.725183e+001
2.722455e+003,1.612165e+001
2.723419e+003,1.938600e+001
2.724383e+003,2.049053e+001
2.725347e+003,1.979365e+001
2.726312e+003,2.069271e+001
2.727276e+003,2.227778e+001
2.728240e+003,2.286662e+001
2.729204e+003,2.329358e+001
2.730169e+003,2.354548e+001
2.731133e+003,2.247753e+001
2.732097e+003,2.151650e+001
2.733061e+003,2.193045e+001
2.734026e+003,1.995646e+001
2.734990e+003,1.574989e+001
2.735954e+003,1.499521e+001
2.736918e+003,1.705729e+001
2.737883e+003,1.900571e+001
2.738847e+003,1.988564e+001
2.739811e+003,2.005313e+001
2.740775e+003,1.991923e+001
2.741740e+003,1.928469e+001
2.742704e+003,1.867846e+001
2.743668e+003,1.819636e+001
2.744632e+003,1.685158e+001
2.745596e+003,1.549383e+001
2.746561e+003,1.255819e+001
2.747525e+003,1.034946e+001
2.748489e+003,1.290414e+001
2.749453e+003,1.382868e+001
2.750417e+003,1.132791e+001
2.751382e+003,9.319427e+000
2.752346e+003,8.906639e+000
2.753310e+003,9.410458e+000
2.754274e+003,1.040217e+001
2.755239e+003,1.107271e+001
2.756203e+003,1.088153e+001
2.757167e+003,1.050784e+001
2.758131e+003,1.001011e+001
2.759096e+003,9.852821e+000
2.760060e+003,1.145504e+001
2.761024e+003,1.266978e+001
2.761988e+003,1.145836e+001
2.762953e+003,1.033494e+001
2.763917e+003,1.065938e+001
2.764881e+003,1.161490e+001
2.765845e+003,1.243345e+001
2.766810e+003,1.314041e+001
2.767774e+003,1.405694e+001
2.768738e+003,1.586982e+001
2.769702e+003,2.104316e+001
2.770667e+003,2.523003e+001
2.771631e+003,1.999257e+001
2.772595e+003,1.253646e+001
2.773559e+003,1.238869e+001
2.774523e+003,1.470208e+001
2.775488e+003,1.372750e+001
2.776452e+003,1.219674e+001
2.777416e+003,1.069734e+001
2.778380e+003,8.252609e+000
2.779344e+003,1.071375e+001
2.780309e+003,1.708503e+001
2.781273e+003,1.639671e+001
2.782237e+003,1.345546e+001
2.783201e+003,1.365871e+001
2.784166e+003,1.355386e+001
2.785130e+003,1.345007e+001
2.786094e+003,1.356454e+001
2.787058e+003,1.299588e+001
2.788023e+003,1.265304e+001
2.788987e+003,1.307714e+001
2.789951e+003,1.316322e+001
2.790915e+003,1.154836e+001
2.791880e+003,9.074467e+000
2.792844e+003,1.003537e+001
2.793808e+003,1.337004e+001
2.794772e+003,1.381822e+001
2.795737e+003,1.158096e+001
2.796701e+003,1.037444e+001
2.797665e+003,1.060943e+001
2.798629e+003,1.090411e+001
2.799594e+003,1.152884e+001
2.800558e+003,1.235826e+001
2.801522e+003,1.304937e+001
2.802486e+003,1.447203e+001
2.803450e+003,1.562989e+001
2.804415e+003,1.594754e+001
2.805379e+003,1.564822e+001
2.806343e+003,1.409901e+001
2.807307e+003,1.363731e+001
2.808271e+003,1.377336e+001
2.809236e+003,1.246959e+001
2.810200e+003,1.178530e+001
2.811164e+003,1.266471e+001
2.812128e+003,1.230412e+001
2.813093e+003,1.066520e+001
2.814057e+003,1.161561e+001
2.815021e+003,1.309213e+001
2.815985e+003,1.208072e+001
2.816950e+003,1.104024e+001
2.817914e+003,1.221373e+001
2.818878e+003,1.392517e+001
2.819842e+003,1.164037e+001
2.820807e+003,7.673801e+000
2.821771e+003,9.273129e+000
2.822735e+003,1.516748e+001
2.823699e+003,1.858112e+001
2.824664e+003,1.919272e+001
2.825628e+003,1.713940e+001
2.826592e+003,1.169823e+001
2.827556e+003,1.093236e+001
2.828521e+003,1.381490e+001
2.829485e+003,1.326443e+001
2.830449e+003,1.041562e+001
2.831413e+003,1.048854e+001
2.832377e+003,1.276847e+001
2.833342e+003,1.359612e+001
2.834306e+003,1.276835e+001
2.835270e+003,1.174880e+001
2.836234e+003,1.062949e+001
2.837198e+003,1.026506e+001
2.838163e+003,1.116660e+001
2.839127e+003,1.199805e+001
2.840091e+003,1.272231e+001
2.841055e+003,1.349929e+001
2.842020e+003,1.388245e+001
2.842984e+003,1.419333e+001
2.843948e+003,1.444438e+001
2.844912e+003,1.290672e+001
2.845877e+003,9.857445e+000
2.846841e+003,8.652634e+000
2.847805e+003,1.029070e+001
2.848769e+003,1.077995e+001
2.849734e+003,8.843891e+000
2.850698e+003,7.286961e+000
2.851662e+003,5.969032e+000
2.852626e+003,7.343105e+000
2.853591e+003,1.140649e+001
2.854555e+003,1.281336e+001
2.855519e+003,1.097864e+001
2.856483e+003,9.688709e+000
2.857448e+003,9.648510e+000
2.858412e+003,8.561298e+000
2.859376e+003,6.151806e+000
2.860340e+003,5.890007e+000
2.861304e+003,8.978283e+000
2.862269e+003,9.406387e+000
2.863233e+003,6.208984e+000
2.864197e+003,5.647558e+000
2.865161e+003,8.722464e+000
2.866125e+003,1.015953e+001
2.867090e+003,8.859167e+000
2.868054e+003,7.895571e+000
2.869018e+003,7.968700e+000
2.869982e+003,7.637152e+000
2.870947e+003,7.571825e+000
2.871911e+003,7.842537e+000
2.872875e+003,6.926954e+000
2.873839e+003,5.962526e+000
2.874804e+003,5.248697e+000
2.875768e+003,6.480160e+000
2.876732e+003,9.378719e+000
2.877696e+003,1.090129e+001
2.878661e+003,1.066212e+001
2.879625e+003,9.859705e+000
2.880589e+003,8.912739e+000
2.881553e+003,8.304020e+000
2.882518e+003,8.277920e+000
2.883482e+003,9.464451e+000
2.884446e+003,1.222518e+001
2.885410e+003,1.322101e+001
2.886375e+003,1.248147e+001
2.887339e+003,1.373092e+001
2.888303e+003,1.658058e+001
2.889267e+003,1.703117e+001
2.890231e+003,1.526410e+001
2.891196e+003,1.496185e+001
2.892160e+003,1.660063e+001
2.893124e+003,1.681092e+001
2.894088e+003,1.481221e+001
2.895052e+003,1.534290e+001
2.896017e+003,1.873272e+001
2.896981e+003,1.950532e+001
2.897945e+003,1.805635e+001
2.898909e+003,1.816681e+001
2.899874e+003,1.968742e+001
2.900838e+003,2.079870e+001
2.901802e+003,2.131292e+001
2.902766e+003,2.165732e+001
2.903731e+003,2.205921e+001
2.904695e+003,2.348427e+001
2.905659e+003,2.596644e+001
2.906623e+003,2.808105e+001
2.907588e+003,2.986983e+001
2.908552e+003,3.227993e+001
2.909516e+003,3.492647e+001
2.910480e+003,3.662341e+001
2.911445e+003,3.720289e+001
2.912409e+003,3.580543e+001
2.913373e+003,3.365502e+001
2.914337e+003,3.437350e+001
2.915302e+003,3.767436e+001
2.916266e+003,4.018076e+001
2.917230e+003,4.193435e+001
2.918194e+003,4.355291e+001
2.919158e+003,4.496612e+001
2.920123e+003,4.584002e+001
2.921087e+003,4.627285e+001
2.922051e+003,4.568676e+001
2.923015e+003,4.538774e+001
2.923979e+003,4.856528e+001
2.924944e+003,5.338502e+001
2.925908e+003,5.480325e+001
2.926872e+003,5.408035e+001
2.927836e+003,5.550404e+001
2.928801e+003,5.818968e+001
2.929765e+003,5.776458e+001
2.930729e+003,5.597984e+001
2.931693e+003,5.624868e+001
2.932658e+003,5.798344e+001
2.933622e+003,6.077996e+001
2.934586e+003,6.372441e+001
2.935550e+003,6.576137e+001
2.936515e+003,6.705539e+001
2.937479e+003,6.774112e+001
2.938443e+003,6.799593e+001
2.939407e+003,6.778941e+001
2.940372e+003,6.802515e+001
2.941336e+003,7.179419e+001
2.942300e+003,7.591026e+001
2.943264e+003,7.590765e+001
2.944229e+003,7.472902e+001
2.945193e+003,7.505402e+001
2.946157e+003,7.624791e+001
2.947121e+003,7.792090e+001
2.948085e+003,7.922656e+001
2.949050e+003,7.903661e+001
2.950014e+003,7.867990e+001
2.950978e+003,8.083818e+001
2.951942e+003,8.298447e+001
2.952906e+003,8.113881e+001
2.953871e+003,7.959746e+001
2.954835e+003,8.227606e+001
2.955799e+003,8.519548e+001
2.956763e+003,8.629227e+001
2.957728e+003,8.688402e+001
2.958692e+003,8.779266e+001
2.959656e+003,8.871971e+001
2.960620e+003,8.939369e+001
2.961585e+003,9.002908e+001
2.962549e+003,9.130936e+001
2.963513e+003,9.186195e+001
2.964477e+003,8.895592e+001
2.965442e+003,8.881915e+001
2.966406e+003,9.453418e+001
2.967370e+003,9.815836e+001
2.968334e+003,9.697150e+001
2.969299e+003,9.651436e+001
2.970263e+003,9.940533e+001
2.971227e+003,1.017582e+002
2.972191e+003,1.011162e+002
2.973156e+003,1.002187e+002
2.974120e+003,9.977599e+001
2.975084e+003,1.005689e+002
2.976048e+003,1.033273e+002
2.977012e+003,1.043051e+002
2.977977e+003,1.029882e+002
2.978941e+003,1.026933e+002
2.979905e+003,1.041045e+002
2.980869e+003,1.057164e+002
2.981833e+003,1.069224e+002
2.982798e+003,1.073206e+002
2.983762e+003,1.064176e+002
2.984726e+003,1.070943e+002
2.985690e+003,1.099357e+002
2.986655e+003,1.123194e+002
2.987619e+003,1.140459e+002
2.988583e+003,1.126301e+002
2.989547e+003,1.093530e+002
2.990512e+003,1.101179e+002
2.991476e+003,1.142812e+002
2.992440e+003,1.163179e+002
2.993404e+003,1.155484e+002
2.994369e+003,1.150084e+002
2.995333e+003,1.148412e+002
2.996297e+003,1.163994e+002
2.997261e+003,1.190739e+002
2.998226e+003,1.188383e+002
2.999190e+003,1.167746e+002
3.000154e+003,1.144070e+002
3.001118e+003,1.132273e+002
3.002083e+003,1.164155e+002
3.003047e+003,1.216965e+002
3.004011e+003,1.242252e+002
3.004975e+003,1.247937e+002
3.005939e+003,1.248671e+002
3.006904e+003,1.252710e+002
3.007868e+003,1.296432e+002
3.008832e+003,1.343607e+002
3.009796e+003,1.336702e+002
3.010760e+003,1.309882e+002
3.011725e+003,1.286367e+002
3.012689e+003,1.279127e+002
3.013653e+003,1.298299e+002
3.014617e+003,1.329796e+002
3.015582e+003,1.360469e+002
3.016546e+003,1.389363e+002
3.017510e+003,1.419855e+002
3.018474e+003,1.438856e+002
3.019439e+003,1.425360e+002
3.020403e+003,1.408790e+002
3.021367e+003,1.398658e+002
3.022331e+003,1.402357e+002
3.023296e+003,1.424801e+002
3.024260e+003,1.446068e+002
3.025224e+003,1.456581e+002
3.026188e+003,1.463257e+002
3.027153e+003,1.470012e+002
3.028117e+003,1.480193e+002
3.029081e+003,1.495432e+002
3.030045e+003,1.516072e+002
3.031010e+003,1.549369e+002
3.031974e+003,1.560032e+002
3.032938e+003,1.543851e+002
3.033902e+003,1.554549e+002
3.034866e+003,1.594606e+002
3.035831e+003,1.605787e+002
3.036795e+003,1.579384e+002
3.037759e+003,1.573122e+002
3.038723e+003,1.604406e+002
3.039688e+003,1.627485e+002
3.040652e+003,1.639811e+002
3.041616e+003,1.647126e+002
3.042580e+003,1.651683e+002
3.043544e+003,1.671973e+002
3.044509e+003,1.698829e+002
3.045473e+003,1.706045e+002
3.046437e+003,1.697098e+002
3.047401e+003,1.680507e+002
3.048366e+003,1.667601e+002
3.049330e+003,1.684870e+002
3.050294e+003,1.724309e+002
3.051258e+003,1.762270e+002
3.052223e+003,1.793686e+002
3.053187e+003,1.804066e+002
3.054151e+003,1.803742e+002
3.055115e+003,1.803999e+002
3.056080e+003,1.802210e+002
3.057044e+003,1.790014e+002
3.058008e+003,1.784557e+002
3.058972e+003,1.802297e+002
3.059937e+003,1.824830e+002
3.060901e+003,1.827725e+002
3.061865e+003,1.831797e+002
3.062829e+003,1.875274e+002
3.063793e+003,1.905143e+002
3.064758e+003,1.868141e+002
3.065722e+003,1.850463e+002
3.066686e+003,1.881140e+002
3.067650e+003,1.910110e+002
3.068615e+003,1.918284e+002
3.069579e+003,1.918795e+002
3.070543e+003,1.919103e+002
3.071507e+003,1.938733e+002
3.072471e+003,2.004033e+002
3.073436e+003,2.032068e+002
3.074400e+003,1.999478e+002
3.075364e+003,1.980342e+002
3.076328e+003,1.979513e+002
3.077293e+003,1.999968e+002
3.078257e+003,2.033498e+002
3.079221e+003,2.051127e+002
3.080185e+003,2.049202e+002
3.081150e+003,2.037496e+002
3.082114e+003,2.019657e+002
3.083078e+003,2.012143e+002
3.084042e+003,2.014874e+002
3.085007e+003,2.032210e+002
3.085971e+003,2.053554e+002
3.086935e+003,2.035551e+002
3.087899e+003,2.009450e+002
3.088864e+003,2.038919e+002
3.089828e+003,2.083719e+002
3.090792e+003,2.076222e+002
3.091756e+003,2.057550e+002
3.092720e+003,2.084814e+002
3.093685e+003,2.125745e+002
3.094649e+003,2.123019e+002
3.095613e+003,2.106346e+002
3.096577e+003,2.106395e+002
3.097542e+003,2.109002e+002
3.098506e+003,2.101192e+002
3.099470e+003,2.101278e+002
3.100434e+003,2.116901e+002
3.101398e+003,2.133680e+002
3.102363e+003,2.143923e+002
3.103327e+003,2.147342e+002
3.104291e+003,2.142553e+002
3.105255e+003,2.140202e+002
3.106220e+003,2.139148e+002
3.107184e+003,2.158459e+002
3.108148e+003,2.204915e+002
3.109112e+003,2.218919e+002
3.110077e+003,2.200144e+002
3.111041e+003,2.195349e+002
3.112005e+003,2.210657e+002
3.112969e+003,2.235435e+002
3.113934e+003,2.260980e+002
3.114898e+003,2.247843e+002
3.115862e+003,2.201904e+002
3.116826e+003,2.202751e+002
3.117791e+003,2.239301e+002
3.118755e+003,2.263838e+002
3.119719e+003,2.279379e+002
3.120683e+003,2.290783e+002
3.121647e+003,2.301433e+002
3.122612e+003,2.313771e+002
3.123576e+003,2.330105e+002
3.124540e+003,2.354931e+002
3.125504e+003,2.374866e+002
3.126469e+003,2.366803e+002
3.127433e+003,2.353371e+002
3.128397e+003,2.359449e+002
3.129361e+003,2.373677e+002
3.130325e+003,2.397458e+002
3.131290e+003,2.412264e+002
3.132254e+003,2.411232e+002
3.133218e+003,2.413791e+002
3.134182e+003,2.427143e+002
3.135147e+003,2.441621e+002
3.136111e+003,2.452484e+002
3.137075e+003,2.464971e+002
3.138039e+003,2.483221e+002
3.139004e+003,2.497909e+002
3.139968e+003,2.509329e+002
3.140932e+003,2.508679e+002
3.141896e+003,2.498099e+002
3.142861e+003,2.482633e+002
3.143825e+003,2.472628e+002
3.144789e+003,2.495398e+002
3.145753e+003,2.543238e+002
3.146718e+003,2.584277e+002
3.147682e+003,2.611593e+002
3.148646e+003,2.593546e+002
3.149610e+003,2.552866e+002
3.150574e+003,2.546824e+002
3.151539e+003,2.563650e+002
3.152503e+003,2.605455e+002
3.153467e+003,2.641728e+002
3.154431e+003,2.648839e+002
3.155396e+003,2.642012e+002
3.156360e+003,2.629635e+002
3.157324e+003,2.628338e+002
3.158288e+003,2.655290e+002
3.159252e+003,2.679793e+002
3.160217e+003,2.675183e+002
3.161181e+003,2.668870e+002
3.162145e+003,2.660257e+002
3.163109e+003,2.681129e+002
3.164074e+003,2.733114e+002
3.165038e+003,2.749027e+002
3.166002e+003,2.726152e+002
3.166966e+003,2.730552e+002
3.167931e+003,2.774876e+002
3.168895e+003,2.810801e+002
3.169859e+003,2.833360e+002
3.170823e+003,2.820638e+002
3.171788e+003,2.784153e+002
3.172752e+003,2.797166e+002
3.173716e+003,2.834624e+002
3.174680e+003,2.847063e+002
3.175645e+003,2.848743e+002
3.176609e+003,2.874335e+002
3.177573e+003,2.889695e+002
3.178537e+003,2.856413e+002
3.179501e+003,2.808907e+002
3.180466e+003,2.787332e+002
3.181430e+003,2.790481e+002
3.182394e+003,2.833771e+002
3.183358e+003,2.875443e+002
3.184323e+003,2.900819e+002
3.185287e+003,2.912532e+002
3.186251e+003,2.910997e+002
3.187215e+003,2.895889e+002
3.188179e+003,2.872163e+002
3.189144e+003,2.877190e+002
3.190108e+003,2.925115e+002
3.191072e+003,2.949241e+002
3.192036e+003,2.935585e+002
3.193001e+003,2.933877e+002
3.193965e+003,2.941386e+002
3.194929e+003,2.934102e+002
3.195893e+003,2.920859e+002
3.196858e+003,2.926823e+002
3.197822e+003,2.942557e+002
3.198786e+003,2.941775e+002
3.199750e+003,2.941379e+002
3.200715e+003,2.969071e+002
3.201679e+003,3.005781e+002
3.202643e+003,3.020620e+002
3.203607e+003,3.020500e+002
3.204572e+003,3.008965e+002
3.205536e+003,2.988207e+002
3.206500e+003,2.950441e+002
3.207464e+003,2.931978e+002
3.208428e+003,2.944386e+002
3.209393e+003,2.976979e+002
3.210357e+003,3.021014e+002
3.211321e+003,3.029961e+002
3.212285e+003,2.971650e+002
3.213250e+003,2.964859e+002
3.214214e+003,3.026411e+002
3.215178e+003,3.074571e+002
3.216142e+003,3.105715e+002
3.217106e+003,3.105249e+002
3.218071e+003,3.090346e+002
3.219035e+003,3.104301e+002
3.219999e+003,3.129576e+002
3.220963e+003,3.119627e+002
3.221928e+003,3.096925e+002
3.222892e+003,3.104837e+002
3.223856e+003,3.125110e+002
3.224820e+003,3.134683e+002
3.225785e+003,3.131049e+002
3.226749e+003,3.086994e+002
3.227713e+003,3.076767e+002
3.228677e+003,3.134824e+002
3.229642e+003,3.163524e+002
3.230606e+003,3.129833e+002
3.231570e+003,3.131079e+002
3.232534e+003,3.212986e+002
3.233499e+003,3.253855e+002
3.234463e+003,3.190231e+002
3.235427e+003,3.178467e+002
3.236391e+003,3.216001e+002
3.237355e+003,3.233432e+002
3.238320e+003,3.235084e+002
3.239284e+003,3.247360e+002
3.240248e+003,3.265518e+002
3.241212e+003,3.268690e+002
3.242177e+003,3.270753e+002
3.243141e+003,3.295925e+002
3.244105e+003,3.327558e+002
3.245069e+003,3.330601e+002
3.246033e+003,3.328382e+002
3.246998e+003,3.357204e+002
3.247962e+003,3.367154e+002
3.248926e+003,3.324234e+002
3.249890e+003,3.305082e+002
3.250855e+003,3.331663e+002
3.251819e+003,3.359955e+002
3.252783e+003,3.371797e+002
3.253747e+003,3.377453e+002
3.254712e+003,3.379900e+002
3.255676e+003,3.378701e+002
3.256640e+003,3.373282e+002
3.257604e+003,3.382697e+002
3.258569e+003,3.403260e+002
3.259533e+003,3.428756e+002
3.260497e+003,3.450312e+002
3.261461e+003,3.448720e+002
3.262426e+003,3.441254e+002
3.263390e+003,3.451127e+002
3.264354e+003,3.466292e+002
3.265318e+003,3.467595e+002
3.266282e+003,3.470657e+002
3.267247e+003,3.495009e+002
3.268211e+003,3.522904e+002
3.269175e+003,3.554349e+002
3.270139e+003,3.561238e+002
3.271104e+003,3.539291e+002
3.272068e+003,3.539185e+002
3.273032e+003,3.570666e+002
3.273996e+003,3.595732e+002
3.274960e+003,3.603312e+002
3.275925e+003,3.612864e+002
3.276889e+003,3.625199e+002
3.277853e+003,3.627692e+002
3.278817e+003,3.624829e+002
3.279782e+003,3.628526e+002
3.280746e+003,3.635865e+002
3.281710e+003,3.639607e+002
3.282674e+003,3.648660e+002
3.283639e+003,3.672676e+002
3.284603e+003,3.693007e+002
3.285567e+003,3.690898e+002
3.286531e+003,3.685425e+002
3.287496e+003,3.688576e+002
3.288460e+003,3.703107e+002
3.289424e+003,3.735746e+002
3.290388e+003,3.751950e+002
3.291353e+003,3.750262e+002
3.292317e+003,3.763028e+002
3.293281e+003,3.789939e+002
3.294245e+003,3.806480e+002
3.295209e+003,3.808217e+002
3.296174e+003,3.806089e+002
3.297138e+003,3.797064e+002
3.298102e+003,3.753861e+002
3.299066e+003,3.706147e+002
3.300031e+003,3.706125e+002
3.300995e+003,3.737036e+002
3.301959e+003,3.808908e+002
3.302923e+003,3.861814e+002
3.303887e+003,3.868800e+002
3.304852e+003,3.869742e+002
3.305816e+003,3.887718e+002
3.306780e+003,3.896113e+002
3.307744e+003,3.869989e+002
3.308709e+003,3.876851e+002
3.309673e+003,3.927592e+002
3.310637e+003,3.948081e+002
3.311601e+003,3.939015e+002
3.312566e+003,3.907083e+002
3.313530e+003,3.873269e+002
3.314494e+003,3.881158e+002
3.315458e+003,3.913849e+002
3.316423e+003,3.937978e+002
3.317387e+003,3.962690e+002
3.318351e+003,4.018274e+002
3.319315e+003,4.059328e+002
3.320280e+003,4.011524e+002
3.321244e+003,3.982636e+002
3.322208e+003,4.020227e+002
3.323172e+003,4.030352e+002
3.324136e+003,3.995087e+002
3.325101e+003,4.000692e+002
3.326065e+003,4.063962e+002
3.327029e+003,4.086881e+002
3.327993e+003,4.047475e+002
3.328958e+003,4.049020e+002
3.329922e+003,4.084535e+002
3.330886e+003,4.107187e+002
3.331850e+003,4.119415e+002
3.332814e+003,4.115332e+002
3.333779e+003,4.118867e+002
3.334743e+003,4.160010e+002
3.335707e+003,4.193287e+002
3.336671e+003,4.185463e+002
3.337636e+003,4.168768e+002
3.338600e+003,4.166400e+002
3.339564e+003,4.175200e+002
3.340528e+003,4.195792e+002
3.341493e+003,4.229043e+002
3.342457e+003,4.273277e+002
3.343421e+003,4.293100e+002
3.344385e+003,4.289922e+002
3.345350e+003,4.275513e+002
3.346314e+003,4.261325e+002
3.347278e+003,4.266770e+002
3.348242e+003,4.287366e+002
3.349207e+003,4.318399e+002
3.350171e+003,4.348304e+002
3.351135e+003,4.361487e+002
3.352099e+003,4.361250e+002
3.353063e+003,4.340271e+002
3.354028e+003,4.323986e+002
3.354992e+003,4.318752e+002
3.355956e+003,4.338339e+002
3.356920e+003,4.381144e+002
3.357885e+003,4.394318e+002
3.358849e+003,4.359487e+002
3.359813e+003,4.373809e+002
3.360777e+003,4.436117e+002
3.361741e+003,4.467701e+002
3.362706e+003,4.474614e+002
3.363670e+003,4.451289e+002
3.364634e+003,4.433397e+002
3.365598e+003,4.467904e+002
3.366563e+003,4.509967e+002
3.367527e+003,4.529332e+002
3.368491e+003,4.533974e+002
3.369455e+003,4.525583e+002
3.370420e+003,4.527357e+002
3.371384e+003,4.558736e+002
3.372348e+003,4.589077e+002
3.373312e+003,4.616479e+002
3.374277e+003,4.616250e+002
3.375241e+003,4.597646e+002
3.376205e+003,4.597173e+002
3.377169e+003,4.607304e+002
3.378134e+003,4.592095e+002
3.379098e+003,4.576089e+002
3.380062e+003,4.613989e+002
3.381026e+003,4.664098e+002
3.381990e+003,4.669276e+002
3.382955e+003,4.660450e+002
3.383919e+003,4.650915e+002
3.384883e+003,4.638320e+002
3.385847e+003,4.622287e+002
3.386812e+003,4.599816e+002
3.387776e+003,4.576469e+002
3.388740e+003,4.591852e+002
3.389704e+003,4.652104e+002
3.390668e+003,4.689704e+002
3.391633e+003,4.704866e+002
3.392597e+003,4.684356e+002
3.393561e+003,4.658759e+002
3.394525e+003,4.685126e+002
3.395490e+003,4.714467e+002
3.396454e+003,4.711000e+002
3.397418e+003,4.690087e+002
3.398382e+003,4.660998e+002
3.399347e+003,4.658304e+002
3.400311e+003,4.709761e+002
3.401275e+003,4.743600e+002
3.402239e+003,4.741369e+002
3.403204e+003,4.752893e+002
3.404168e+003,4.772240e+002
3.405132e+003,4.758486e+002
3.406096e+003,4.733507e+002
3.407061e+003,4.750250e+002
3.408025e+003,4.783714e+002
3.408989e+003,4.803340e+002
3.409953e+003,4.808117e+002
3.410917e+003,4.788665e+002
3.411882e+003,4.777965e+002
3.412846e+003,4.809344e+002
3.413810e+003,4.838541e+002
3.414774e+003,4.859804e+002
3.415739e+003,4.858694e+002
3.416703e+003,4.842581e+002
3.417667e+003,4.849798e+002
3.418631e+003,4.879556e+002
3.419595e+003,4.905938e+002
3.420560e+003,4.921307e+002
3.421524e+003,4.903593e+002
3.422488e+003,4.870305e+002
3.423452e+003,4.837256e+002
3.424417e+003,4.821161e+002
3.425381e+003,4.833032e+002
3.426345e+003,4.864951e+002
3.427309e+003,4.913114e+002
3.428274e+003,4.944962e+002
3.429238e+003,4.951407e+002
3.430202e+003,4.956744e+002
3.431166e+003,4.965646e+002
3.432131e+003,4.958327e+002
3.433095e+003,4.941361e+002
3.434059e+003,4.941342e+002
3.435023e+003,4.954008e+002
3.435988e+003,4.978609e+002
3.436952e+003,5.007129e+002
3.437916e+003,5.037568e+002
3.438880e+003,5.048137e+002
3.439844e+003,5.026197e+002
3.440809e+003,4.997802e+002
3.441773e+003,4.967582e+002
3.442737e+003,4.982636e+002
3.443701e+003,5.044350e+002
3.444666e+003,5.082056e+002
3.445630e+003,5.098382e+002
3.446594e+003,5.102480e+002
3.447558e+003,5.103172e+002
3.448522e+003,5.111101e+002
3.449487e+003,5.117840e+002
3.450451e+003,5.113888e+002
3.451415e+003,5.114039e+002
3.452379e+003,5.135244e+002
3.453344e+003,5.160231e+002
3.454308e+003,5.190219e+002
3.455272e+003,5.183289e+002
3.456236e+003,5.150615e+002
3.457201e+003,5.188015e+002
3.458165e+003,5.268834e+002
3.459129e+003,5.271135e+002
3.460093e+003,5.239616e+002
3.461058e+003,5.266903e+002
3.462022e+003,5.313099e+002
3.462986e+003,5.312900e+002
3.463950e+003,5.301266e+002
3.464915e+003,5.289836e+002
3.465879e+003,5.299943e+002
3.466843e+003,5.334200e+002
3.467807e+003,5.366486e+002
3.468771e+003,5.389686e+002
3.469736e+003,5.400733e+002
3.470700e+003,5.404620e+002
3.471664e+003,5.426544e+002
3.472628e+003,5.459401e+002
3.473593e+003,5.493207e+002
3.474557e+003,5.510120e+002
3.475521e+003,5.461021e+002
3.476485e+003,5.442834e+002
3.477449e+003,5.493613e+002
3.478414e+003,5.538530e+002
3.479378e+003,5.550679e+002
3.480342e+003,5.543494e+002
3.481306e+003,5.522776e+002
3.482271e+003,5.533535e+002
3.483235e+003,5.571342e+002
3.484199e+003,5.579098e+002
3.485163e+003,5.578985e+002
3.486128e+003,5.612652e+002
3.487092e+003,5.650756e+002
3.488056e+003,5.671562e+002
3.489020e+003,5.684586e+002
3.489985e+003,5.695195e+002
3.490949e+003,5.712480e+002
3.491913e+003,5.744904e+002
3.492877e+003,5.747531e+002
3.493842e+003,5.717021e+002
3.494806e+003,5.720875e+002
3.495770e+003,5.750767e+002
3.496734e+003,5.800117e+002
3.497698e+003,5.837733e+002
3.498663e+003,5.824395e+002
3.499627e+003,5.814969e+002
3.500591e+003,0.000000e+000
