9.974011e+001,4.431179e+002
1.007043e+002,4.464378e+002
1.016686e+002,4.489061e+002
1.026328e+002,4.497108e+002
1.035970e+002,4.501896e+002
1.045613e+002,4.516259e+002
1.055255e+002,4.529291e+002
1.064897e+002,4.517858e+002
1.074540e+002,4.452123e+002
1.084182e+002,4.386993e+002
1.093824e+002,4.315806e+002
1.103467e+002,4.242456e+002
1.113109e+002,4.185621e+002
1.122751e+002,4.191955e+002
1.132394e+002,4.216530e+002
1.142036e+002,4.239413e+002
1.151678e+002,4.247604e+002
1.161321e+002,4.240948e+002
1.170963e+002,4.225358e+002
1.180605e+002,4.202666e+002
1.190248e+002,4.179344e+002
1.199890e+002,4.163220e+002
1.209532e+002,4.164448e+002
1.219175e+002,4.154189e+002
1.228817e+002,4.124090e+002
1.238459e+002,4.084826e+002
1.248102e+002,4.057916e+002
1.257744e+002,4.057113e+002
1.267386e+002,4.053671e+002
1.277029e+002,4.040584e+002
1.286671e+002,4.017960e+002
1.296313e+002,3.993646e+002
1.305956e+002,3.980042e+002
1.315598e+002,3.965718e+002
1.325240e+002,3.943906e+002
1.334883e+002,3.913577e+002
1.344525e+002,3.885196e+002
1.354167e+002,3.880919e+002
1.363810e+002,3.889352e+002
1.373452e+002,3.899130e+002
1.383094e+002,3.900639e+002
1.392737e+002,3.892772e+002
1.402379e+002,3.882227e+002
1.412021e+002,3.870301e+002
1.421664e+002,3.853820e+002
1.431306e+002,3.827285e+002
1.440948e+002,3.772096e+002
1.450591e+002,3.737272e+002
1.460233e+002,3.734427e+002
1.469875e+002,3.753486e+002
1.479518e+002,3.769056e+002
1.489160e+002,3.754191e+002
1.498802e+002,3.734368e+002
1.508445e+002,3.723824e+002
1.518087e+002,3.726654e+002
1.527729e+002,3.736097e+002
1.537372e+002,3.724523e+002
1.547014e+002,3.698036e+002
1.556656e+002,3.667822e+002
1.566299e+002,3.642123e+002
1.575941e+002,3.624612e+002
1.585583e+002,3.601609e+002
1.595226e+002,3.568434e+002
1.604868e+002,3.537966e+002
1.614510e+002,3.523473e+002
1.624153e+002,3.534995e+002
1.633795e+002,3.534191e+002
1.643438e+002,3.519033e+002
1.653080e+002,3.496308e+002
1.662722e+002,3.474063e+002
1.672365e+002,3.452292e+002
1.682007e+002,3.434729e+002
1.691649e+002,3.425073e+002
1.701292e+002,3.423534e+002
1.710934e+002,3.428892e+002
1.720576e+002,3.442980e+002
1.730219e+002,3.457065e+002
1.739861e+002,3.457787e+002
1.749503e+002,3.438535e+002
1.759146e+002,3.397314e+002
1.768788e+002,3.354849e+002
1.778430e+002,3.313101e+002
1.788073e+002,3.287463e+002
1.797715e+002,3.293173e+002
1.807357e+002,3.346411e+002
1.817000e+002,3.380127e+002
1.826642e+002,3.374757e+002
1.836284e+002,3.352916e+002
1.845927e+002,3.329799e+002
1.855569e+002,3.311920e+002
1.865211e+002,3.295250e+002
1.874854e+002,3.290348e+002
1.884496e+002,3.290726e+002
1.894138e+002,3.284854e+002
1.903781e+002,3.251115e+002
1.913423e+002,3.205317e+002
1.923065e+002,3.186779e+002
1.932708e+002,3.195537e+002
1.942350e+002,3.219318e+002
1.951992e+002,3.223525e+002
1.961635e+002,3.200907e+002
1.971277e+002,3.183466e+002
1.980919e+002,3.182042e+002
1.990562e+002,3.196319e+002
2.000204e+002,3.197139e+002
2.009846e+002,3.160410e+002
2.019489e+002,3.126495e+002
2.029131e+002,3.111593e+002
2.038773e+002,3.121365e+002
2.048416e+002,3.136934e+002
2.058058e+002,3.144786e+002
2.067700e+002,3.146821e+002
2.077343e+002,3.142065e+002
2.086985e+002,3.129937e+002
2.096627e+002,3.113277e+002
2.106270e+002,3.105132e+002
2.115912e+002,3.104113e+002
2.125554e+002,3.104047e+002
2.135197e+002,3.097258e+002
2.144839e+002,3.076341e+002
2.154481e+002,3.061537e+002
2.164124e+002,3.060020e+002
2.173766e+002,3.065201e+002
2.183408e+002,3.065374e+002
2.193051e+002,3.050579e+002
2.202693e+002,3.038752e+002
2.212335e+002,3.033519e+002
2.221978e+002,3.032384e+002
2.231620e+002,3.030399e+002
2.241262e+002,3.024761e+002
2.250904e+002,3.021994e+002
2.260547e+002,3.021246e+002
2.270189e+002,3.021622e+002
2.279831e+002,3.022850e+002
2.289474e+002,3.033829e+002
2.299116e+002,3.054115e+002
2.308758e+002,3.067092e+002
2.318401e+002,3.065966e+002
2.328043e+002,3.050674e+002
2.337685e+002,3.045227e+002
2.347328e+002,3.047324e+002
2.356970e+002,3.046819e+002
2.366612e+002,3.040973e+002
2.376255e+002,3.030904e+002
2.385897e+002,3.021271e+002
2.395539e+002,3.011603e+002
2.405182e+002,3.004462e+002
2.414824e+002,3.001788e+002
2.424466e+002,3.004888e+002
2.434109e+002,3.013024e+002
2.443751e+002,3.026296e+002
2.453393e+002,3.039531e+002
2.463036e+002,3.046165e+002
2.472678e+002,3.039585e+002
2.482320e+002,3.020975e+002
2.491963e+002,3.010972e+002
2.501605e+002,3.008792e+002
2.511247e+002,3.010745e+002
2.520890e+002,3.011484e+002
2.530532e+002,3.006010e+002
2.540174e+002,3.006246e+002
2.549817e+002,3.017957e+002
2.559459e+002,3.037867e+002
2.569102e+002,3.058345e+002
2.578744e+002,3.070953e+002
2.588386e+002,3.075447e+002
2.598029e+002,3.077987e+002
2.607671e+002,3.079603e+002
2.617313e+002,3.078737e+002
2.626956e+002,3.066802e+002
2.636598e+002,3.053593e+002
2.646240e+002,3.049191e+002
2.655883e+002,3.053870e+002
2.665525e+002,3.063869e+002
2.675167e+002,3.071863e+002
2.684810e+002,3.083467e+002
2.694452e+002,3.089922e+002
2.704094e+002,3.082172e+002
2.713737e+002,3.058975e+002
2.723379e+002,3.055271e+002
2.733021e+002,3.087695e+002
2.742664e+002,3.118538e+002
2.752306e+002,3.135423e+002
2.761948e+002,3.135656e+002
2.771591e+002,3.134285e+002
2.781233e+002,3.149432e+002
2.790875e+002,3.167651e+002
2.800518e+002,3.177159e+002
2.810160e+002,3.171398e+002
2.819802e+002,3.156339e+002
2.829445e+002,3.154030e+002
2.839087e+002,3.161217e+002
2.848729e+002,3.172319e+002
2.858372e+002,3.183698e+002
2.868014e+002,3.196805e+002
2.877656e+002,3.203918e+002
2.887299e+002,3.195903e+002
2.896941e+002,3.184525e+002
2.906583e+002,3.182591e+002
2.916226e+002,3.202553e+002
2.925868e+002,3.211331e+002
2.935510e+002,3.190172e+002
2.945153e+002,3.162921e+002
2.954795e+002,3.152213e+002
2.964437e+002,3.176255e+002
2.974080e+002,3.206046e+002
2.983722e+002,3.216520e+002
2.993364e+002,3.213751e+002
3.003007e+002,3.202848e+002
3.012649e+002,3.188171e+002
3.022291e+002,3.169615e+002
3.031934e+002,3.165324e+002
3.041576e+002,3.179086e+002
3.051218e+002,3.201508e+002
3.060861e+002,3.215212e+002
3.070503e+002,3.200546e+002
3.080145e+002,3.195881e+002
3.089788e+002,3.213814e+002
3.099430e+002,3.244598e+002
3.109072e+002,3.271145e+002
3.118715e+002,3.284953e+002
3.128357e+002,3.297506e+002
3.137999e+002,3.311015e+002
3.147642e+002,3.320016e+002
3.157284e+002,3.315730e+002
3.166926e+002,3.281956e+002
3.176569e+002,3.246164e+002
3.186211e+002,3.249850e+002
3.195853e+002,3.292309e+002
3.205496e+002,3.351296e+002
3.215138e+002,3.373422e+002
3.224780e+002,3.337637e+002
3.234423e+002,3.312101e+002
3.244065e+002,3.306011e+002
3.253707e+002,3.316290e+002
3.263350e+002,3.328891e+002
3.272992e+002,3.352411e+002
3.282634e+002,3.374000e+002
3.292277e+002,3.392193e+002
3.301919e+002,3.405743e+002
3.311561e+002,3.413264e+002
3.321204e+002,3.403593e+002
3.330846e+002,3.392081e+002
3.340488e+002,3.391354e+002
3.350131e+002,3.400529e+002
3.359773e+002,3.410180e+002
3.369415e+002,3.396202e+002
3.379058e+002,3.367113e+002
3.388700e+002,3.350857e+002
3.398342e+002,3.355851e+002
3.407985e+002,3.378870e+002
3.417627e+002,3.396974e+002
3.427269e+002,3.394178e+002
3.436912e+002,3.396369e+002
3.446554e+002,3.414229e+002
3.456196e+002,3.446689e+002
3.465839e+002,3.475643e+002
3.475481e+002,3.495236e+002
3.485123e+002,3.509781e+002
3.494765e+002,3.514766e+002
3.504408e+002,3.510057e+002
3.514050e+002,3.500263e+002
3.523692e+002,3.493875e+002
3.533335e+002,3.491689e+002
3.542977e+002,3.495917e+002
3.552619e+002,3.507245e+002
3.562262e+002,3.523862e+002
3.571904e+002,3.532391e+002
3.581546e+002,3.527658e+002
3.591189e+002,3.523578e+002
3.600831e+002,3.523783e+002
3.610473e+002,3.527360e+002
3.620116e+002,3.527507e+002
3.629758e+002,3.522316e+002
3.639400e+002,3.520826e+002
3.649043e+002,3.527704e+002
3.658685e+002,3.541802e+002
3.668327e+002,3.554458e+002
3.677970e+002,3.557479e+002
3.687612e+002,3.559076e+002
3.697254e+002,3.559874e+002
3.706897e+002,3.561288e+002
3.716539e+002,3.565812e+002
3.726181e+002,3.583355e+002
3.735824e+002,3.606447e+002
3.745466e+002,3.619253e+002
3.755108e+002,3.617471e+002
3.764751e+002,3.604596e+002
3.774393e+002,3.598364e+002
3.784035e+002,3.600589e+002
3.793678e+002,3.603017e+002
3.803320e+002,3.606488e+002
3.812962e+002,3.611401e+002
3.822605e+002,3.615350e+002
3.832247e+002,3.612086e+002
3.841889e+002,3.610343e+002
3.851532e+002,3.615048e+002
3.861174e+002,3.624545e+002
3.870816e+002,3.631275e+002
3.880459e+002,3.617720e+002
3.890101e+002,3.599547e+002
3.899743e+002,3.597913e+002
3.909386e+002,3.617275e+002
3.919028e+002,3.650215e+002
3.928670e+002,3.669001e+002
3.938313e+002,3.664873e+002
3.947955e+002,3.659587e+002
3.957597e+002,3.660810e+002
3.967240e+002,3.666690e+002
3.976882e+002,3.663793e+002
3.986524e+002,3.633010e+002
3.996167e+002,3.615030e+002
4.005809e+002,3.621789e+002
4.015451e+002,3.644171e+002
4.025094e+002,3.659020e+002
4.034736e+002,3.642882e+002
4.044378e+002,3.626693e+002
4.054021e+002,3.627652e+002
4.063663e+002,3.644102e+002
4.073305e+002,3.668011e+002
4.082948e+002,3.689156e+002
4.092590e+002,3.706042e+002
4.102232e+002,3.712240e+002
4.111875e+002,3.704397e+002
4.121517e+002,3.687843e+002
4.131159e+002,3.676498e+002
4.140802e+002,3.680202e+002
4.150444e+002,3.691669e+002
4.160086e+002,3.711307e+002
4.169729e+002,3.735364e+002
4.179371e+002,3.757779e+002
4.189013e+002,3.769517e+002
4.198656e+002,3.773278e+002
4.208298e+002,3.777894e+002
4.217940e+002,3.781938e+002
4.227583e+002,3.782149e+002
4.237225e+002,3.774881e+002
4.246867e+002,3.769500e+002
4.256510e+002,3.774456e+002
4.266152e+002,3.785950e+002
4.275794e+002,3.798842e+002
4.285437e+002,3.808377e+002
4.295079e+002,3.814335e+002
4.304721e+002,3.818939e+002
4.314364e+002,3.824554e+002
4.324006e+002,3.832778e+002
4.333648e+002,3.843878e+002
4.343291e+002,3.856188e+002
4.352933e+002,3.862699e+002
4.362575e+002,3.861351e+002
4.372218e+002,3.858527e+002
4.381860e+002,3.860347e+002
4.391502e+002,3.870513e+002
4.401145e+002,3.881335e+002
4.410787e+002,3.885302e+002
4.420429e+002,3.887099e+002
4.430072e+002,3.887897e+002
4.439714e+002,3.887241e+002
4.449356e+002,3.882854e+002
4.458999e+002,3.887361e+002
4.468641e+002,3.903433e+002
4.478283e+002,3.920620e+002
4.487926e+002,3.937495e+002
4.497568e+002,3.957545e+002
4.507210e+002,3.970164e+002
4.516853e+002,3.959310e+002
4.526495e+002,3.942958e+002
4.536137e+002,3.927230e+002
4.545780e+002,3.915010e+002
4.555422e+002,3.907822e+002
4.565064e+002,3.915106e+002
4.574707e+002,3.927798e+002
4.584349e+002,3.939185e+002
4.593991e+002,3.945545e+002
4.603634e+002,3.945778e+002
4.613276e+002,3.939786e+002
4.622918e+002,3.931151e+002
4.632561e+002,3.929231e+002
4.642203e+002,3.938666e+002
4.651845e+002,3.954714e+002
4.661488e+002,3.959781e+002
4.671130e+002,3.931734e+002
4.680772e+002,3.910998e+002
4.690415e+002,3.906360e+002
4.700057e+002,3.912832e+002
4.709699e+002,3.919589e+002
4.719342e+002,3.925266e+002
4.728984e+002,3.921132e+002
4.738626e+002,3.894061e+002
4.748269e+002,3.856671e+002
4.757911e+002,3.829053e+002
4.767553e+002,3.832332e+002
4.777196e+002,3.857504e+002
4.786838e+002,3.865447e+002
4.796480e+002,3.855322e+002
4.806123e+002,3.838407e+002
4.815765e+002,3.828802e+002
4.825407e+002,3.834199e+002
4.835050e+002,3.834460e+002
4.844692e+002,3.828312e+002
4.854334e+002,3.820299e+002
4.863977e+002,3.810472e+002
4.873619e+002,3.794716e+002
4.883261e+002,3.772770e+002
4.892904e+002,3.749570e+002
4.902546e+002,3.733280e+002
4.912188e+002,3.725490e+002
4.921831e+002,3.724940e+002
4.931473e+002,3.728607e+002
4.941115e+002,3.742289e+002
4.950758e+002,3.758283e+002
4.960400e+002,3.766718e+002
4.970042e+002,3.765334e+002
4.979685e+002,3.757883e+002
4.989327e+002,3.753912e+002
4.998969e+002,3.748950e+002
5.008612e+002,3.741678e+002
5.018254e+002,3.731676e+002
5.027896e+002,3.718629e+002
5.037539e+002,3.702232e+002
5.047181e+002,3.678657e+002
5.056823e+002,3.667873e+002
5.066466e+002,3.678500e+002
5.076108e+002,3.702103e+002
5.085750e+002,3.724559e+002
5.095393e+002,3.732076e+002
5.105035e+002,3.734893e+002
5.114677e+002,3.757579e+002
5.124320e+002,3.793400e+002
5.133962e+002,3.824109e+002
5.143605e+002,3.830230e+002
5.153247e+002,3.807972e+002
5.162889e+002,3.796644e+002
5.172532e+002,3.797475e+002
5.182174e+002,3.810745e+002
5.191816e+002,3.840232e+002
5.201459e+002,3.889236e+002
5.211101e+002,3.927225e+002
5.220743e+002,3.935234e+002
5.230386e+002,3.944082e+002
5.240028e+002,3.973940e+002
5.249670e+002,4.029692e+002
5.259313e+002,4.094963e+002
5.268955e+002,4.145499e+002
5.278597e+002,4.188499e+002
5.288240e+002,4.231437e+002
5.297882e+002,4.276670e+002
5.307524e+002,4.323533e+002
5.317167e+002,4.371321e+002
5.326809e+002,4.426063e+002
5.336451e+002,4.480132e+002
5.346094e+002,4.524372e+002
5.355736e+002,4.560378e+002
5.365378e+002,4.596976e+002
5.375021e+002,4.640535e+002
5.384663e+002,4.694015e+002
5.394305e+002,4.769091e+002
5.403948e+002,4.844323e+002
5.413590e+002,4.895461e+002
5.423232e+002,4.906376e+002
5.432875e+002,4.906932e+002
5.442517e+002,4.929063e+002
5.452159e+002,4.967792e+002
5.461802e+002,5.016547e+002
5.471444e+002,5.066914e+002
5.481086e+002,5.109415e+002
5.490729e+002,5.126667e+002
5.500371e+002,5.130854e+002
5.510013e+002,5.136989e+002
5.519656e+002,5.150193e+002
5.529298e+002,5.169440e+002
5.538940e+002,5.189500e+002
5.548583e+002,5.204979e+002
5.558225e+002,5.209409e+002
5.567867e+002,5.203561e+002
5.577510e+002,5.190262e+002
5.587152e+002,5.173147e+002
5.596794e+002,5.154595e+002
5.606437e+002,5.139296e+002
5.616079e+002,5.124232e+002
5.625721e+002,5.109844e+002
5.635364e+002,5.098187e+002
5.645006e+002,5.091039e+002
5.654648e+002,5.083008e+002
5.664291e+002,5.062609e+002
5.673933e+002,5.039407e+002
5.683575e+002,5.017942e+002
5.693218e+002,4.994482e+002
5.702860e+002,4.960341e+002
5.712502e+002,4.924822e+002
5.722145e+002,4.894698e+002
5.731787e+002,4.859298e+002
5.741429e+002,4.815800e+002
5.751072e+002,4.769805e+002
5.760714e+002,4.735508e+002
5.770356e+002,4.730684e+002
5.779999e+002,4.730304e+002
5.789641e+002,4.717721e+002
5.799283e+002,4.690797e+002
5.808926e+002,4.652133e+002
5.818568e+002,4.604659e+002
5.828210e+002,4.550428e+002
5.837853e+002,4.504953e+002
5.847495e+002,4.470339e+002
5.857137e+002,4.444471e+002
5.866780e+002,4.426791e+002
5.876422e+002,4.422135e+002
5.886064e+002,4.403794e+002
5.895707e+002,4.362570e+002
5.905349e+002,4.322927e+002
5.914991e+002,4.296112e+002
5.924634e+002,4.281058e+002
5.934276e+002,4.263951e+002
5.943918e+002,4.238084e+002
5.953560e+002,4.210830e+002
5.963203e+002,4.185489e+002
5.972845e+002,4.159628e+002
5.982487e+002,4.126379e+002
5.992130e+002,4.076639e+002
6.001772e+002,4.021113e+002
6.011414e+002,3.990727e+002
6.021057e+002,3.981451e+002
6.030699e+002,3.972427e+002
6.040341e+002,3.941885e+002
6.049984e+002,3.885486e+002
6.059626e+002,3.832493e+002
6.069268e+002,3.789378e+002
6.078911e+002,3.754368e+002
6.088553e+002,3.725020e+002
6.098195e+002,3.696843e+002
6.107838e+002,3.661669e+002
6.117480e+002,3.613746e+002
6.127122e+002,3.566193e+002
6.136765e+002,3.523089e+002
6.146407e+002,3.482673e+002
6.156049e+002,3.439418e+002
6.165692e+002,3.386805e+002
6.175334e+002,3.329706e+002
6.184976e+002,3.289059e+002
6.194619e+002,3.268621e+002
6.204261e+002,3.260709e+002
6.213903e+002,3.257405e+002
6.223546e+002,3.264445e+002
6.233188e+002,3.249554e+002
6.242830e+002,3.198689e+002
6.252473e+002,3.143060e+002
6.262115e+002,3.103041e+002
6.271757e+002,3.082157e+002
6.281400e+002,3.062106e+002
6.291042e+002,3.027003e+002
6.300684e+002,2.990240e+002
6.310327e+002,2.960544e+002
6.319969e+002,2.937076e+002
6.329611e+002,2.911125e+002
6.339254e+002,2.868307e+002
6.348896e+002,2.807698e+002
6.358538e+002,2.765825e+002
6.368181e+002,2.748902e+002
6.377823e+002,2.740149e+002
6.387465e+002,2.718752e+002
6.397108e+002,2.677302e+002
6.406750e+002,2.650220e+002
6.416392e+002,2.642969e+002
6.426035e+002,2.634821e+002
6.435677e+002,2.617233e+002
6.445319e+002,2.590716e+002
6.454962e+002,2.562795e+002
6.464604e+002,2.537343e+002
6.474246e+002,2.514877e+002
6.483889e+002,2.494542e+002
6.493531e+002,2.474330e+002
6.503173e+002,2.452798e+002
6.512816e+002,2.430144e+002
6.522458e+002,2.407437e+002
6.532100e+002,2.380396e+002
6.541743e+002,2.349948e+002
6.551385e+002,2.320102e+002
6.561027e+002,2.293389e+002
6.570670e+002,2.269232e+002
6.580312e+002,2.240223e+002
6.589954e+002,2.196284e+002
6.599597e+002,2.152113e+002
6.609239e+002,2.116993e+002
6.618881e+002,2.091750e+002
6.628524e+002,2.070099e+002
6.638166e+002,2.046260e+002
6.647808e+002,2.024333e+002
6.657451e+002,2.005849e+002
6.667093e+002,1.989035e+002
6.676735e+002,1.972574e+002
6.686378e+002,1.956093e+002
6.696020e+002,1.939688e+002
6.705662e+002,1.920955e+002
6.715305e+002,1.903266e+002
6.724947e+002,1.875834e+002
6.734589e+002,1.827019e+002
6.744232e+002,1.761049e+002
6.753874e+002,1.716578e+002
6.763516e+002,1.716935e+002
6.773159e+002,1.720068e+002
6.782801e+002,1.722473e+002
6.792443e+002,1.717428e+002
6.802086e+002,1.694915e+002
6.811728e+002,1.644663e+002
6.821370e+002,1.588108e+002
6.831013e+002,1.557814e+002
6.840655e+002,1.546971e+002
6.850297e+002,1.542842e+002
6.859940e+002,1.536631e+002
6.869582e+002,1.526720e+002
6.879224e+002,1.509135e+002
6.888867e+002,1.476241e+002
6.898509e+002,1.449244e+002
6.908151e+002,1.443288e+002
6.917794e+002,1.447159e+002
6.927436e+002,1.431210e+002
6.937078e+002,1.373793e+002
6.946721e+002,1.324163e+002
6.956363e+002,1.297675e+002
6.966005e+002,1.286251e+002
6.975648e+002,1.284539e+002
6.985290e+002,1.287699e+002
6.994932e+002,1.286361e+002
7.004575e+002,1.261213e+002
7.014217e+002,1.225341e+002
7.023859e+002,1.198453e+002
7.033502e+002,1.187300e+002
7.043144e+002,1.184531e+002
7.052786e+002,1.170739e+002
7.062429e+002,1.128990e+002
7.072071e+002,1.103500e+002
7.081713e+002,1.110109e+002
7.091356e+002,1.123729e+002
7.100998e+002,1.119767e+002
7.110640e+002,1.091271e+002
7.120283e+002,1.065421e+002
7.129925e+002,1.060759e+002
7.139567e+002,1.060822e+002
7.149210e+002,1.060911e+002
7.158852e+002,1.057583e+002
7.168494e+002,1.046171e+002
7.178137e+002,1.018945e+002
7.187779e+002,9.817327e+001
7.197421e+002,9.607452e+001
7.207064e+002,9.554939e+001
7.216706e+002,9.561979e+001
7.226348e+002,9.559221e+001
7.235991e+002,9.560418e+001
7.245633e+002,9.564165e+001
7.255275e+002,9.518102e+001
7.264918e+002,9.460574e+001
7.274560e+002,9.436501e+001
7.284202e+002,9.441998e+001
7.293845e+002,9.432015e+001
7.303487e+002,9.366960e+001
7.313129e+002,9.272406e+001
7.322772e+002,9.150478e+001
7.332414e+002,9.027821e+001
7.342056e+002,8.954366e+001
7.351699e+002,8.965821e+001
7.361341e+002,9.050713e+001
7.370983e+002,9.112772e+001
7.380626e+002,9.109003e+001
7.390268e+002,9.107063e+001
7.399910e+002,9.173016e+001
7.409553e+002,9.286312e+001
7.419195e+002,9.355728e+001
7.428837e+002,9.348920e+001
7.438480e+002,9.250742e+001
7.448122e+002,8.989553e+001
7.457764e+002,8.769386e+001
7.467407e+002,8.782778e+001
7.477049e+002,9.072939e+001
7.486691e+002,9.443719e+001
7.496334e+002,9.627669e+001
7.505976e+002,9.696112e+001
7.515618e+002,9.787217e+001
7.525261e+002,9.922636e+001
7.534903e+002,1.003986e+002
7.544545e+002,1.004538e+002
7.554188e+002,9.931503e+001
7.563830e+002,9.909872e+001
7.573472e+002,9.871463e+001
7.583115e+002,9.909244e+001
7.592757e+002,1.016607e+002
7.602399e+002,1.064218e+002
7.612042e+002,1.106662e+002
7.621684e+002,1.126278e+002
7.631326e+002,1.136236e+002
7.640969e+002,1.137838e+002
7.650611e+002,1.136167e+002
7.660253e+002,1.139330e+002
7.669896e+002,1.154358e+002
7.679538e+002,1.178452e+002
7.689180e+002,1.195938e+002
7.698823e+002,1.202041e+002
7.708465e+002,1.196617e+002
7.718107e+002,1.179655e+002
7.727750e+002,1.159221e+002
7.737392e+002,1.155242e+002
7.747034e+002,1.183361e+002
7.756677e+002,1.204786e+002
7.766319e+002,1.208165e+002
7.775961e+002,1.207067e+002
7.785604e+002,1.216297e+002
7.795246e+002,1.239793e+002
7.804888e+002,1.259857e+002
7.814531e+002,1.258616e+002
7.824173e+002,1.248103e+002
7.833815e+002,1.232830e+002
7.843458e+002,1.216886e+002
7.853100e+002,1.205311e+002
7.862742e+002,1.202978e+002
7.872385e+002,1.207676e+002
7.882027e+002,1.208772e+002
7.891669e+002,1.203423e+002
7.901312e+002,1.198656e+002
7.910954e+002,1.205318e+002
7.920596e+002,1.224043e+002
7.930239e+002,1.234528e+002
7.939881e+002,1.223515e+002
7.949523e+002,1.210242e+002
7.959166e+002,1.195575e+002
7.968808e+002,1.181982e+002
7.978450e+002,1.173885e+002
7.988093e+002,1.173866e+002
7.997735e+002,1.175088e+002
8.007377e+002,1.163667e+002
8.017020e+002,1.144483e+002
8.026662e+002,1.123160e+002
8.036304e+002,1.100815e+002
8.045947e+002,1.079318e+002
8.055589e+002,1.062969e+002
8.065231e+002,1.055042e+002
8.074874e+002,1.043150e+002
8.084516e+002,1.025715e+002
8.094158e+002,1.006885e+002
8.103801e+002,9.916970e+001
8.113443e+002,9.821349e+001
8.123085e+002,9.745841e+001
8.132728e+002,9.618672e+001
8.142370e+002,9.468929e+001
8.152012e+002,9.319033e+001
8.161655e+002,9.142052e+001
8.171297e+002,8.923328e+001
8.180939e+002,8.674828e+001
8.190582e+002,8.445437e+001
8.200224e+002,8.264724e+001
8.209866e+002,8.098737e+001
8.219509e+002,7.971976e+001
8.229151e+002,7.891264e+001
8.238793e+002,7.836766e+001
8.248436e+002,7.790263e+001
8.258078e+002,7.798722e+001
8.267720e+002,7.719601e+001
8.277363e+002,7.478076e+001
8.287005e+002,7.181846e+001
8.296647e+002,6.907661e+001
8.306290e+002,6.683359e+001
8.315932e+002,6.490672e+001
8.325574e+002,6.296398e+001
8.335217e+002,6.124445e+001
8.344859e+002,6.009710e+001
8.354501e+002,5.935899e+001
8.364144e+002,5.876834e+001
8.373786e+002,5.829396e+001
8.383428e+002,5.802269e+001
8.393071e+002,5.684932e+001
8.402713e+002,5.324397e+001
8.412355e+002,5.077148e+001
8.421998e+002,5.037415e+001
8.431640e+002,5.107166e+001
8.441282e+002,5.163480e+001
8.450925e+002,5.185021e+001
8.460567e+002,5.151048e+001
8.470209e+002,5.015602e+001
8.479852e+002,4.840261e+001
8.489494e+002,4.639400e+001
8.499136e+002,4.447904e+001
8.508779e+002,4.347778e+001
8.518421e+002,4.453580e+001
8.528063e+002,4.753266e+001
8.537706e+002,4.850903e+001
8.547348e+002,4.695477e+001
8.556990e+002,4.522694e+001
8.566633e+002,4.485213e+001
8.576275e+002,4.552315e+001
8.585917e+002,4.524507e+001
8.595560e+002,4.290497e+001
8.605202e+002,4.119469e+001
8.614844e+002,4.083102e+001
8.624487e+002,4.145081e+001
8.634129e+002,4.264034e+001
8.643771e+002,4.405223e+001
8.653414e+002,4.532928e+001
8.663056e+002,4.687189e+001
8.672698e+002,4.842689e+001
8.682341e+002,4.802710e+001
8.691983e+002,4.517266e+001
8.701625e+002,4.214030e+001
8.711268e+002,4.200026e+001
8.720910e+002,4.541649e+001
8.730552e+002,4.628095e+001
8.740195e+002,4.334335e+001
8.749837e+002,4.128996e+001
8.759479e+002,4.131145e+001
8.769122e+002,4.263084e+001
8.778764e+002,4.397377e+001
8.788406e+002,4.494394e+001
8.798049e+002,4.520406e+001
8.807691e+002,4.460693e+001
8.817333e+002,4.388256e+001
8.826976e+002,4.365288e+001
8.836618e+002,4.401496e+001
8.846260e+002,4.459493e+001
8.855903e+002,4.482977e+001
8.865545e+002,4.460702e+001
8.875187e+002,4.362276e+001
8.884830e+002,4.092976e+001
8.894472e+002,3.885292e+001
8.904114e+002,3.906326e+001
8.913757e+002,4.124627e+001
8.923399e+002,4.328224e+001
8.933041e+002,4.444532e+001
8.942684e+002,4.511529e+001
8.952326e+002,4.564150e+001
8.961968e+002,4.597594e+001
8.971611e+002,4.602657e+001
8.981253e+002,4.586240e+001
8.990895e+002,4.574181e+001
9.000538e+002,4.574419e+001
9.010180e+002,4.591351e+001
9.019822e+002,4.708824e+001
9.029465e+002,4.959726e+001
9.039107e+002,5.228023e+001
9.048749e+002,5.403331e+001
9.058392e+002,5.473970e+001
9.068034e+002,5.499613e+001
9.077676e+002,5.346978e+001
9.087319e+002,5.327833e+001
9.096961e+002,5.627918e+001
9.106603e+002,6.066230e+001
9.116246e+002,6.390170e+001
9.125888e+002,6.487785e+001
9.135530e+002,6.498935e+001
9.145173e+002,6.565918e+001
9.154815e+002,6.661560e+001
9.164457e+002,6.804931e+001
9.174100e+002,7.014704e+001
9.183742e+002,7.247414e+001
9.193384e+002,7.433263e+001
9.203027e+002,7.560024e+001
9.212669e+002,7.727650e+001
9.222311e+002,7.853412e+001
9.231954e+002,7.999671e+001
9.241596e+002,8.271766e+001
9.251238e+002,8.611576e+001
9.260881e+002,8.884821e+001
9.270523e+002,9.034642e+001
9.280165e+002,9.145101e+001
9.289808e+002,9.255843e+001
9.299450e+002,9.387576e+001
9.309092e+002,9.556358e+001
9.318735e+002,9.752185e+001
9.328377e+002,9.950321e+001
9.338019e+002,1.012949e+002
9.347662e+002,1.028765e+002
9.357304e+002,1.042335e+002
9.366946e+002,1.051528e+002
9.376589e+002,1.072023e+002
9.386231e+002,1.114518e+002
9.395873e+002,1.166385e+002
9.405516e+002,1.204329e+002
9.415158e+002,1.226598e+002
9.424800e+002,1.237729e+002
9.434443e+002,1.229484e+002
9.444085e+002,1.221705e+002
9.453727e+002,1.231862e+002
9.463370e+002,1.257182e+002
9.473012e+002,1.278130e+002
9.482654e+002,1.274200e+002
9.492297e+002,1.251484e+002
9.501939e+002,1.252485e+002
9.511581e+002,1.281526e+002
9.521224e+002,1.305144e+002
9.530866e+002,1.303537e+002
9.540508e+002,1.285271e+002
9.550151e+002,1.272388e+002
9.559793e+002,1.260810e+002
9.569435e+002,1.257967e+002
9.579078e+002,1.285414e+002
9.588720e+002,1.313633e+002
9.598362e+002,1.318244e+002
9.608005e+002,1.303630e+002
9.617647e+002,1.293386e+002
9.627289e+002,1.305727e+002
9.636932e+002,1.328169e+002
9.646574e+002,1.332753e+002
9.656216e+002,1.323762e+002
9.665859e+002,1.319233e+002
9.675501e+002,1.328806e+002
9.685143e+002,1.347794e+002
9.694786e+002,1.363527e+002
9.704428e+002,1.374200e+002
9.714070e+002,1.389262e+002
9.723713e+002,1.397374e+002
9.733355e+002,1.409291e+002
9.742997e+002,1.437851e+002
9.752640e+002,1.479847e+002
9.762282e+002,1.521627e+002
9.771924e+002,1.553455e+002
9.781567e+002,1.579384e+002
9.791209e+002,1.604619e+002
9.800851e+002,1.631332e+002
9.810494e+002,1.665127e+002
9.820136e+002,1.707993e+002
9.829778e+002,1.752613e+002
9.839421e+002,1.785947e+002
9.849063e+002,1.802543e+002
9.858705e+002,1.813206e+002
9.868348e+002,1.824681e+002
9.877990e+002,1.837054e+002
9.887632e+002,1.847345e+002
9.897275e+002,1.856833e+002
9.906917e+002,1.868137e+002
9.916559e+002,1.879572e+002
9.926202e+002,1.882473e+002
9.935844e+002,1.874429e+002
9.945486e+002,1.863671e+002
9.955129e+002,1.853211e+002
9.964771e+002,1.845631e+002
9.974413e+002,1.844451e+002
9.984056e+002,1.851762e+002
9.993698e+002,1.863790e+002
1.000334e+003,1.863018e+002
1.001298e+003,1.841027e+002
1.002263e+003,1.827391e+002
1.003227e+003,1.827118e+002
1.004191e+003,1.835331e+002
1.005155e+003,1.847449e+002
1.006119e+003,1.862556e+002
1.007084e+003,1.878664e+002
1.008048e+003,1.901902e+002
1.009012e+003,1.925166e+002
1.009976e+003,1.938851e+002
1.010941e+003,1.944818e+002
1.011905e+003,1.948952e+002
1.012869e+003,1.955438e+002
1.013833e+003,1.965061e+002
1.014798e+003,1.980835e+002
1.015762e+003,2.009965e+002
1.016726e+003,2.041442e+002
1.017690e+003,2.078153e+002
1.018654e+003,2.112636e+002
1.019619e+003,2.133189e+002
1.020583e+003,2.141733e+002
1.021547e+003,2.161932e+002
1.022511e+003,2.204825e+002
1.023476e+003,2.248200e+002
1.024440e+003,2.286873e+002
1.025404e+003,2.323610e+002
1.026368e+003,2.359909e+002
1.027333e+003,2.396259e+002
1.028297e+003,2.433619e+002
1.029261e+003,2.472265e+002
1.030225e+003,2.509143e+002
1.031190e+003,2.539816e+002
1.032154e+003,2.569443e+002
1.033118e+003,2.603655e+002
1.034082e+003,2.642546e+002
1.035047e+003,2.683868e+002
1.036011e+003,2.725773e+002
1.036975e+003,2.767985e+002
1.037939e+003,2.805189e+002
1.038903e+003,2.837683e+002
1.039868e+003,2.873970e+002
1.040832e+003,2.916395e+002
1.041796e+003,2.962226e+002
1.042760e+003,3.006187e+002
1.043725e+003,3.045412e+002
1.044689e+003,3.082160e+002
1.045653e+003,3.124089e+002
1.046617e+003,3.170989e+002
1.047582e+003,3.218688e+002
1.048546e+003,3.276783e+002
1.049510e+003,3.333611e+002
1.050474e+003,3.369645e+002
1.051438e+003,3.382543e+002
1.052403e+003,3.402992e+002
1.053367e+003,3.431387e+002
1.054331e+003,3.472219e+002
1.055295e+003,3.543997e+002
1.056260e+003,3.621186e+002
1.057224e+003,3.675667e+002
1.058188e+003,3.704228e+002
1.059152e+003,3.728301e+002
1.060117e+003,3.768423e+002
1.061081e+003,3.823237e+002
1.062045e+003,3.887599e+002
1.063009e+003,3.957784e+002
1.063974e+003,4.021805e+002
1.064938e+003,4.080955e+002
1.065902e+003,4.137481e+002
1.066866e+003,4.187230e+002
1.067830e+003,4.222980e+002
1.068795e+003,4.259050e+002
1.069759e+003,4.303945e+002
1.070723e+003,4.350012e+002
1.071687e+003,4.396304e+002
1.072652e+003,4.445349e+002
1.073616e+003,4.497712e+002
1.074580e+003,4.550594e+002
1.075544e+003,4.600605e+002
1.076509e+003,4.648992e+002
1.077473e+003,4.696949e+002
1.078437e+003,4.739835e+002
1.079401e+003,4.777193e+002
1.080365e+003,4.814731e+002
1.081330e+003,4.852216e+002
1.082294e+003,4.889680e+002
1.083258e+003,4.937298e+002
1.084222e+003,5.010982e+002
1.085187e+003,5.067400e+002
1.086151e+003,5.087674e+002
1.087115e+003,5.099797e+002
1.088079e+003,5.122006e+002
1.089043e+003,5.154360e+002
1.090008e+003,5.188405e+002
1.090972e+003,5.219219e+002
1.091936e+003,5.243336e+002
1.092900e+003,5.246962e+002
1.093865e+003,5.232750e+002
1.094829e+003,5.218217e+002
1.095793e+003,5.211926e+002
1.096757e+003,5.205115e+002
1.097722e+003,5.180018e+002
1.098686e+003,5.132557e+002
1.099650e+003,5.095058e+002
1.100614e+003,5.092933e+002
1.101578e+003,5.088195e+002
1.102543e+003,5.064985e+002
1.103507e+003,5.033199e+002
1.104471e+003,5.001616e+002
1.105435e+003,4.968351e+002
1.106400e+003,4.924124e+002
1.107364e+003,4.863979e+002
1.108328e+003,4.797117e+002
1.109292e+003,4.743011e+002
1.110257e+003,4.702847e+002
1.111221e+003,4.667043e+002
1.112185e+003,4.632598e+002
1.113149e+003,4.588708e+002
1.114114e+003,4.518547e+002
1.115078e+003,4.420778e+002
1.116042e+003,4.341404e+002
1.117006e+003,4.314993e+002
1.117970e+003,4.284490e+002
1.118935e+003,4.225125e+002
1.119899e+003,4.146579e+002
1.120863e+003,4.062153e+002
1.121827e+003,3.980115e+002
1.122792e+003,3.903879e+002
1.123756e+003,3.834131e+002
1.124720e+003,3.766456e+002
1.125684e+003,3.704587e+002
1.126649e+003,3.657729e+002
1.127613e+003,3.608497e+002
1.128577e+003,3.546072e+002
1.129541e+003,3.476984e+002
1.130505e+003,3.410818e+002
1.131470e+003,3.346772e+002
1.132434e+003,3.284333e+002
1.133398e+003,3.228557e+002
1.134362e+003,3.176663e+002
1.135327e+003,3.125135e+002
1.136291e+003,3.074023e+002
1.137255e+003,3.026411e+002
1.138219e+003,2.983281e+002
1.139184e+003,2.941261e+002
1.140148e+003,2.894908e+002
1.141112e+003,2.840319e+002
1.142076e+003,2.769127e+002
1.143041e+003,2.676339e+002
1.144005e+003,2.598460e+002
1.144969e+003,2.554582e+002
1.145933e+003,2.528358e+002
1.146897e+003,2.494737e+002
1.147862e+003,2.448846e+002
1.148826e+003,2.403971e+002
1.149790e+003,2.374091e+002
1.150754e+003,2.342131e+002
1.151719e+003,2.292478e+002
1.152683e+003,2.236162e+002
1.153647e+003,2.191174e+002
1.154611e+003,2.163876e+002
1.155576e+003,2.143760e+002
1.156540e+003,2.114369e+002
1.157504e+003,2.071366e+002
1.158468e+003,2.020724e+002
1.159432e+003,1.958384e+002
1.160397e+003,1.904784e+002
1.161361e+003,1.872846e+002
1.162325e+003,1.850717e+002
1.163289e+003,1.825715e+002
1.164254e+003,1.793617e+002
1.165218e+003,1.743698e+002
1.166182e+003,1.654074e+002
1.167146e+003,1.573151e+002
1.168111e+003,1.548502e+002
1.169075e+003,1.554491e+002
1.170039e+003,1.550316e+002
1.171003e+003,1.522364e+002
1.171968e+003,1.483094e+002
1.172932e+003,1.449502e+002
1.173896e+003,1.422955e+002
1.174860e+003,1.394560e+002
1.175824e+003,1.355574e+002
1.176789e+003,1.321596e+002
1.177753e+003,1.302027e+002
1.178717e+003,1.284000e+002
1.179681e+003,1.252639e+002
1.180646e+003,1.209161e+002
1.181610e+003,1.169259e+002
1.182574e+003,1.141855e+002
1.183538e+003,1.120797e+002
1.184503e+003,1.099217e+002
1.185467e+003,1.078453e+002
1.186431e+003,1.063053e+002
1.187395e+003,1.052616e+002
1.188359e+003,1.034768e+002
1.189324e+003,9.939650e+001
1.190288e+003,9.354123e+001
1.191252e+003,9.055286e+001
1.192216e+003,9.319482e+001
1.193181e+003,9.360896e+001
1.194145e+003,8.946381e+001
1.195109e+003,8.413458e+001
1.196073e+003,7.944243e+001
1.197038e+003,7.589981e+001
1.198002e+003,7.380963e+001
1.198966e+003,7.327129e+001
1.199930e+003,7.301422e+001
1.200895e+003,7.112282e+001
1.201859e+003,6.801161e+001
1.202823e+003,6.533702e+001
1.203787e+003,6.314693e+001
1.204751e+003,6.115152e+001
1.205716e+003,5.932776e+001
1.206680e+003,5.761224e+001
1.207644e+003,5.560146e+001
1.208608e+003,5.298975e+001
1.209573e+003,5.093542e+001
1.210537e+003,5.126451e+001
1.211501e+003,5.114481e+001
1.212465e+003,4.871153e+001
1.213430e+003,4.527072e+001
1.214394e+003,4.248723e+001
1.215358e+003,4.079970e+001
1.216322e+003,3.960474e+001
1.217286e+003,3.858231e+001
1.218251e+003,3.788116e+001
1.219215e+003,3.713435e+001
1.220179e+003,3.668852e+001
1.221143e+003,3.592601e+001
1.222108e+003,3.412061e+001
1.223072e+003,3.232443e+001
1.224036e+003,3.176488e+001
1.225000e+003,3.212959e+001
1.225965e+003,3.174135e+001
1.226929e+003,2.990207e+001
1.227893e+003,2.724232e+001
1.228857e+003,2.418520e+001
1.229822e+003,2.183665e+001
1.230786e+003,2.103337e+001
1.231750e+003,2.155139e+001
1.232714e+003,2.266600e+001
1.233678e+003,2.387975e+001
1.234643e+003,2.482307e+001
1.235607e+003,2.417535e+001
1.236571e+003,2.114743e+001
1.237535e+003,1.930591e+001
1.238500e+003,1.879970e+001
1.239464e+003,1.872856e+001
1.240428e+003,1.916747e+001
1.241392e+003,1.935185e+001
1.242357e+003,1.781216e+001
1.243321e+003,1.443565e+001
1.244285e+003,1.214478e+001
1.245249e+003,1.363599e+001
1.246214e+003,1.712422e+001
1.247178e+003,1.962872e+001
1.248142e+003,2.090088e+001
1.249106e+003,2.049307e+001
1.250070e+003,1.805513e+001
1.251035e+003,1.525761e+001
1.251999e+003,1.467183e+001
1.252963e+003,1.641245e+001
1.253927e+003,1.699144e+001
1.254892e+003,1.509288e+001
1.255856e+003,1.407788e+001
1.256820e+003,1.537363e+001
1.257784e+003,1.696062e+001
1.258749e+003,1.729848e+001
1.259713e+003,1.646899e+001
1.260677e+003,1.538545e+001
1.261641e+003,1.457806e+001
1.262605e+003,1.376025e+001
1.263570e+003,1.234183e+001
1.264534e+003,1.040388e+001
1.265498e+003,9.647003e+000
1.266462e+003,1.052089e+001
1.267427e+003,1.167220e+001
1.268391e+003,1.228203e+001
1.269355e+003,1.255209e+001
1.270319e+003,1.329126e+001
1.271284e+003,1.474557e+001
1.272248e+003,1.560587e+001
1.273212e+003,1.523566e+001
1.274176e+003,1.488556e+001
1.275141e+003,1.466168e+001
1.276105e+003,1.424297e+001
1.277069e+003,1.380687e+001
1.278033e+003,1.350215e+001
1.278997e+003,1.310034e+001
1.279962e+003,1.237556e+001
1.280926e+003,1.164532e+001
1.281890e+003,1.142688e+001
1.282854e+003,1.074271e+001
1.283819e+003,1.047133e+001
1.284783e+003,1.208566e+001
1.285747e+003,1.298761e+001
1.286711e+003,1.142560e+001
1.287676e+003,8.928558e+000
1.288640e+003,7.809952e+000
1.289604e+003,8.483566e+000
1.290568e+003,9.518692e+000
1.291532e+003,9.826370e+000
1.292497e+003,9.686325e+000
1.293461e+003,9.849213e+000
1.294425e+003,1.039140e+001
1.295389e+003,1.106412e+001
1.296354e+003,1.182967e+001
1.297318e+003,1.223454e+001
1.298282e+003,1.159421e+001
1.299246e+003,1.005547e+001
1.300211e+003,8.958832e+000
1.301175e+003,8.772858e+000
1.302139e+003,8.932068e+000
1.303103e+003,9.121567e+000
1.304068e+003,8.989807e+000
1.305032e+003,8.078644e+000
1.305996e+003,6.962372e+000
1.306960e+003,6.622681e+000
1.307924e+003,7.546738e+000
1.308889e+003,9.645874e+000
1.309853e+003,1.273978e+001
1.310817e+003,1.618918e+001
1.311781e+003,1.588300e+001
1.312746e+003,9.491074e+000
1.313710e+003,5.762756e+000
1.314674e+003,6.633698e+000
1.315638e+003,8.910980e+000
1.316603e+003,1.048669e+001
1.317567e+003,1.107317e+001
1.318531e+003,1.103929e+001
1.319495e+003,1.088248e+001
1.320459e+003,1.116629e+001
1.321424e+003,1.199762e+001
1.322388e+003,1.274161e+001
1.323352e+003,1.304822e+001
1.324316e+003,1.290829e+001
1.325281e+003,1.186539e+001
1.326245e+003,9.362473e+000
1.327209e+003,6.955368e+000
1.328173e+003,7.182297e+000
1.329138e+003,1.001265e+001
1.330102e+003,1.192140e+001
1.331066e+003,1.274174e+001
1.332030e+003,1.310452e+001
1.332995e+003,1.291513e+001
1.333959e+003,1.218336e+001
1.334923e+003,1.044435e+001
1.335887e+003,8.300888e+000
1.336851e+003,6.996780e+000
1.337816e+003,7.148529e+000
1.338780e+003,8.155579e+000
1.339744e+003,9.006165e+000
1.340708e+003,9.449799e+000
1.341673e+003,9.453247e+000
1.342637e+003,8.876297e+000
1.343601e+003,8.396591e+000
1.344565e+003,8.286926e+000
1.345530e+003,8.558853e+000
1.346494e+003,9.079651e+000
1.347458e+003,9.860184e+000
1.348422e+003,1.120049e+001
1.349386e+003,1.313219e+001
1.350351e+003,1.424506e+001
1.351315e+003,1.317302e+001
1.352279e+003,1.145378e+001
1.353243e+003,1.135623e+001
1.354208e+003,1.258084e+001
1.355172e+003,1.382457e+001
1.356136e+003,1.459689e+001
1.357100e+003,1.427690e+001
1.358065e+003,1.153004e+001
1.359029e+003,6.914871e+000
1.359993e+003,5.005035e+000
1.360957e+003,7.112137e+000
1.361922e+003,9.153717e+000
1.362886e+003,1.033031e+001
1.363850e+003,1.087799e+001
1.364814e+003,1.029848e+001
1.365778e+003,9.116821e+000
1.366743e+003,8.263062e+000
1.367707e+003,8.006454e+000
1.368671e+003,7.839325e+000
1.369635e+003,7.312256e+000
1.370600e+003,6.740143e+000
1.371564e+003,6.663620e+000
1.372528e+003,6.799210e+000
1.373492e+003,7.454422e+000
1.374457e+003,9.077057e+000
1.375421e+003,1.035506e+001
1.376385e+003,1.108499e+001
1.377349e+003,1.121208e+001
1.378313e+003,1.015715e+001
1.379278e+003,8.011597e+000
1.380242e+003,6.242493e+000
1.381206e+003,5.792542e+000
1.382170e+003,6.491425e+000
1.383135e+003,8.635651e+000
1.384099e+003,1.151317e+001
1.385063e+003,1.304031e+001
1.386027e+003,1.251175e+001
1.386992e+003,1.122308e+001
1.387956e+003,9.973022e+000
1.388920e+003,9.152054e+000
1.389884e+003,9.389587e+000
1.390849e+003,1.076826e+001
1.391813e+003,1.167221e+001
1.392777e+003,1.103409e+001
1.393741e+003,9.886093e+000
1.394705e+003,9.203827e+000
1.395670e+003,9.064072e+000
1.396634e+003,9.326477e+000
1.397598e+003,9.523926e+000
1.398562e+003,8.897537e+000
1.399527e+003,7.314636e+000
1.400491e+003,6.218872e+000
1.401455e+003,7.979538e+000
1.402419e+003,1.273648e+001
1.403384e+003,1.501787e+001
1.404348e+003,1.253311e+001
1.405312e+003,9.948883e+000
1.406276e+003,7.599670e+000
1.407240e+003,6.775391e+000
1.408205e+003,8.599747e+000
1.409169e+003,1.131628e+001
1.410133e+003,1.209924e+001
1.411097e+003,1.040775e+001
1.412062e+003,8.823090e+000
1.413026e+003,1.006401e+001
1.413990e+003,1.312770e+001
1.414954e+003,1.369162e+001
1.415919e+003,1.109264e+001
1.416883e+003,9.490280e+000
1.417847e+003,9.341736e+000
1.418811e+003,9.589706e+000
1.419776e+003,1.007603e+001
1.420740e+003,1.064705e+001
1.421704e+003,1.114905e+001
1.422668e+003,1.158517e+001
1.423632e+003,1.157800e+001
1.424597e+003,1.073608e+001
1.425561e+003,9.736359e+000
1.426525e+003,9.064484e+000
1.427489e+003,8.885849e+000
1.428454e+003,9.734024e+000
1.429418e+003,1.149557e+001
1.430382e+003,1.289122e+001
1.431346e+003,1.304076e+001
1.432311e+003,1.228284e+001
1.433275e+003,1.152702e+001
1.434239e+003,1.118474e+001
1.435203e+003,1.091180e+001
1.436167e+003,1.017426e+001
1.437132e+003,9.463516e+000
1.438096e+003,8.682129e+000
1.439060e+003,8.038635e+000
1.440024e+003,8.254242e+000
1.440989e+003,9.050308e+000
1.441953e+003,9.423065e+000
1.442917e+003,9.027115e+000
1.443881e+003,8.656937e+000
1.444846e+003,9.283798e+000
1.445810e+003,1.092361e+001
1.446774e+003,1.298637e+001
1.447738e+003,1.602974e+001
1.448703e+003,1.681882e+001
1.449667e+003,1.351402e+001
1.450631e+003,1.076530e+001
1.451595e+003,9.988586e+000
1.452559e+003,1.039201e+001
1.453524e+003,1.141000e+001
1.454488e+003,1.266968e+001
1.455452e+003,1.385149e+001
1.456416e+003,1.474257e+001
1.457381e+003,1.503508e+001
1.458345e+003,1.427214e+001
1.459309e+003,1.262648e+001
1.460273e+003,1.187457e+001
1.461238e+003,1.268513e+001
1.462202e+003,1.357683e+001
1.463166e+003,1.434198e+001
1.464130e+003,1.504433e+001
1.465094e+003,1.524501e+001
1.466059e+003,1.501198e+001
1.467023e+003,1.503827e+001
1.467987e+003,1.557898e+001
1.468951e+003,1.602998e+001
1.469916e+003,1.616389e+001
1.470880e+003,1.642891e+001
1.471844e+003,1.661499e+001
1.472808e+003,1.641498e+001
1.473773e+003,1.676315e+001
1.474737e+003,1.809724e+001
1.475701e+003,1.861227e+001
1.476665e+003,1.684772e+001
1.477630e+003,1.472670e+001
1.478594e+003,1.444974e+001
1.479558e+003,1.545107e+001
1.480522e+003,1.607919e+001
1.481486e+003,1.624066e+001
1.482451e+003,1.646228e+001
1.483415e+003,1.693210e+001
1.484379e+003,1.754073e+001
1.485343e+003,1.827377e+001
1.486308e+003,1.914063e+001
1.487272e+003,2.016510e+001
1.488236e+003,2.124368e+001
1.489200e+003,2.183705e+001
1.490165e+003,2.130922e+001
1.491129e+003,2.019379e+001
1.492093e+003,1.982721e+001
1.493057e+003,2.034586e+001
1.494021e+003,2.196796e+001
1.494986e+003,2.601016e+001
1.495950e+003,2.898584e+001
1.496914e+003,2.864850e+001
1.497878e+003,2.773286e+001
1.498843e+003,2.822218e+001
1.499807e+003,2.960341e+001
1.500771e+003,3.065794e+001
1.501735e+003,3.098637e+001
1.502700e+003,3.093176e+001
1.503664e+003,3.073688e+001
1.504628e+003,3.043610e+001
1.505592e+003,3.049339e+001
1.506557e+003,3.132445e+001
1.507521e+003,3.216315e+001
1.508485e+003,3.275291e+001
1.509449e+003,3.322772e+001
1.510413e+003,3.385690e+001
1.511378e+003,3.395230e+001
1.512342e+003,3.257037e+001
1.513306e+003,3.061435e+001
1.514270e+003,2.994908e+001
1.515235e+003,3.093843e+001
1.516199e+003,3.192439e+001
1.517163e+003,3.136620e+001
1.518127e+003,2.983133e+001
1.519092e+003,2.882657e+001
1.520056e+003,2.822462e+001
1.521020e+003,2.806781e+001
1.521984e+003,2.940779e+001
1.522948e+003,2.963905e+001
1.523913e+003,2.707448e+001
1.524877e+003,2.445319e+001
1.525841e+003,2.465514e+001
1.526805e+003,2.658369e+001
1.527770e+003,2.686523e+001
1.528734e+003,2.436537e+001
1.529698e+003,2.143979e+001
1.530662e+003,2.043547e+001
1.531627e+003,2.072931e+001
1.532591e+003,2.030765e+001
1.533555e+003,1.911705e+001
1.534519e+003,1.773439e+001
1.535484e+003,1.528413e+001
1.536448e+003,1.414780e+001
1.537412e+003,1.624416e+001
1.538376e+003,1.888535e+001
1.539340e+003,1.920770e+001
1.540305e+003,1.791553e+001
1.541269e+003,1.745180e+001
1.542233e+003,1.834540e+001
1.543197e+003,1.889716e+001
1.544162e+003,1.775090e+001
1.545126e+003,1.589706e+001
1.546090e+003,1.591998e+001
1.547054e+003,1.786600e+001
1.548019e+003,1.850694e+001
1.548983e+003,1.611269e+001
1.549947e+003,1.397237e+001
1.550911e+003,1.438101e+001
1.551875e+003,1.550294e+001
1.552840e+003,1.537502e+001
1.553804e+003,1.450743e+001
1.554768e+003,1.393150e+001
1.555732e+003,1.355994e+001
1.556697e+003,1.352470e+001
1.557661e+003,1.433488e+001
1.558625e+003,1.528116e+001
1.559589e+003,1.502162e+001
1.560554e+003,1.413701e+001
1.561518e+003,1.420711e+001
1.562482e+003,1.548087e+001
1.563446e+003,1.615979e+001
1.564411e+003,1.474419e+001
1.565375e+003,1.310693e+001
1.566339e+003,1.396666e+001
1.567303e+003,1.633899e+001
1.568267e+003,1.636592e+001
1.569232e+003,1.324953e+001
1.570196e+003,1.068790e+001
1.571160e+003,1.056984e+001
1.572124e+003,1.116841e+001
1.573089e+003,1.109650e+001
1.574053e+003,1.084862e+001
1.575017e+003,1.070660e+001
1.575981e+003,1.062474e+001
1.576946e+003,1.102605e+001
1.577910e+003,1.210286e+001
1.578874e+003,1.316974e+001
1.579838e+003,1.408078e+001
1.580802e+003,1.504688e+001
1.581767e+003,1.541664e+001
1.582731e+003,1.473497e+001
1.583695e+003,1.386601e+001
1.584659e+003,1.283775e+001
1.585624e+003,1.219833e+001
1.586588e+003,1.356650e+001
1.587552e+003,1.554218e+001
1.588516e+003,1.611969e+001
1.589481e+003,1.533528e+001
1.590445e+003,1.426855e+001
1.591409e+003,1.313806e+001
1.592373e+003,1.206284e+001
1.593338e+003,1.134773e+001
1.594302e+003,1.103325e+001
1.595266e+003,1.089980e+001
1.596230e+003,1.097676e+001
1.597194e+003,1.172758e+001
1.598159e+003,1.332333e+001
1.599123e+003,1.481122e+001
1.600087e+003,1.604776e+001
1.601051e+003,1.681383e+001
1.602016e+003,1.671606e+001
1.602980e+003,1.582593e+001
1.603944e+003,1.438887e+001
1.604908e+003,1.274872e+001
1.605873e+003,1.185179e+001
1.606837e+003,1.235921e+001
1.607801e+003,1.380397e+001
1.608765e+003,1.558687e+001
1.609729e+003,1.725519e+001
1.610694e+003,1.746191e+001
1.611658e+003,1.608298e+001
1.612622e+003,1.445692e+001
1.613586e+003,1.298228e+001
1.614551e+003,1.209877e+001
1.615515e+003,1.166714e+001
1.616479e+003,1.148845e+001
1.617443e+003,1.172879e+001
1.618408e+003,1.236668e+001
1.619372e+003,1.307120e+001
1.620336e+003,1.385403e+001
1.621300e+003,1.449963e+001
1.622265e+003,1.449303e+001
1.623229e+003,1.400598e+001
1.624193e+003,1.374388e+001
1.625157e+003,1.365923e+001
1.626121e+003,1.359859e+001
1.627086e+003,1.360907e+001
1.628050e+003,1.370380e+001
1.629014e+003,1.345885e+001
1.629978e+003,1.337669e+001
1.630943e+003,1.450923e+001
1.631907e+003,1.626123e+001
1.632871e+003,1.713362e+001
1.633835e+003,1.693669e+001
1.634800e+003,1.663043e+001
1.635764e+003,1.693788e+001
1.636728e+003,1.737233e+001
1.637692e+003,1.665828e+001
1.638656e+003,1.489648e+001
1.639621e+003,1.393054e+001
1.640585e+003,1.400826e+001
1.641549e+003,1.447432e+001
1.642513e+003,1.575581e+001
1.643478e+003,1.735083e+001
1.644442e+003,1.859216e+001
1.645406e+003,1.938870e+001
1.646370e+003,1.937611e+001
1.647335e+003,1.867526e+001
1.648299e+003,1.862714e+001
1.649263e+003,1.999084e+001
1.650227e+003,2.122794e+001
1.651192e+003,2.095979e+001
1.652156e+003,1.982187e+001
1.653120e+003,1.882520e+001
1.654084e+003,1.804889e+001
1.655048e+003,1.747556e+001
1.656013e+003,1.700642e+001
1.656977e+003,1.720444e+001
1.657941e+003,1.882269e+001
1.658905e+003,2.012909e+001
1.659870e+003,1.873909e+001
1.660834e+003,1.613466e+001
1.661798e+003,1.502748e+001
1.662762e+003,1.552777e+001
1.663727e+003,1.619359e+001
1.664691e+003,1.647890e+001
1.665655e+003,1.673352e+001
1.666619e+003,1.753151e+001
1.667583e+003,1.856517e+001
1.668548e+003,1.889673e+001
1.669512e+003,1.839650e+001
1.670476e+003,1.785999e+001
1.671440e+003,1.777217e+001
1.672405e+003,1.833922e+001
1.673369e+003,1.957957e+001
1.674333e+003,2.113470e+001
1.675297e+003,2.273663e+001
1.676262e+003,2.424060e+001
1.677226e+003,2.469560e+001
1.678190e+003,2.365298e+001
1.679154e+003,2.278699e+001
1.680119e+003,2.295183e+001
1.681083e+003,2.317406e+001
1.682047e+003,2.279147e+001
1.683011e+003,2.201619e+001
1.683975e+003,2.111308e+001
1.684940e+003,2.030399e+001
1.685904e+003,1.988512e+001
1.686868e+003,1.988710e+001
1.687832e+003,2.062984e+001
1.688797e+003,2.253537e+001
1.689761e+003,2.469142e+001
1.690725e+003,2.517545e+001
1.691689e+003,2.388829e+001
1.692654e+003,2.339319e+001
1.693618e+003,2.482930e+001
1.694582e+003,2.604633e+001
1.695546e+003,2.558636e+001
1.696510e+003,2.478777e+001
1.697475e+003,2.499625e+001
1.698439e+003,2.590088e+001
1.699403e+003,2.689494e+001
1.700367e+003,2.775977e+001
1.701332e+003,2.796140e+001
1.702296e+003,2.728755e+001
1.703260e+003,2.729210e+001
1.704224e+003,2.990425e+001
1.705189e+003,3.403775e+001
1.706153e+003,3.592371e+001
1.707117e+003,3.483026e+001
1.708081e+003,3.351167e+001
1.709046e+003,3.226558e+001
1.710010e+003,3.238972e+001
1.710974e+003,3.437199e+001
1.711938e+003,3.620177e+001
1.712902e+003,3.660864e+001
1.713867e+003,3.597209e+001
1.714831e+003,3.489684e+001
1.715795e+003,3.412381e+001
1.716759e+003,3.479439e+001
1.717724e+003,3.719475e+001
1.718688e+003,3.951631e+001
1.719652e+003,3.946524e+001
1.720616e+003,3.764526e+001
1.721581e+003,3.723517e+001
1.722545e+003,3.882484e+001
1.723509e+003,3.930016e+001
1.724473e+003,3.798639e+001
1.725438e+003,3.688162e+001
1.726402e+003,3.607492e+001
1.727366e+003,3.560820e+001
1.728330e+003,3.600223e+001
1.729294e+003,3.675876e+001
1.730259e+003,3.715767e+001
1.731223e+003,3.721265e+001
1.732187e+003,3.734914e+001
1.733151e+003,3.762286e+001
1.734116e+003,3.771974e+001
1.735080e+003,3.738651e+001
1.736044e+003,3.723233e+001
1.737008e+003,3.871507e+001
1.737973e+003,4.137967e+001
1.738937e+003,4.139603e+001
1.739901e+003,3.775409e+001
1.740865e+003,3.478638e+001
1.741829e+003,3.453883e+001
1.742794e+003,3.516498e+001
1.743758e+003,3.556415e+001
1.744722e+003,3.555148e+001
1.745686e+003,3.411386e+001
1.746651e+003,3.156387e+001
1.747615e+003,3.090225e+001
1.748579e+003,3.346414e+001
1.749543e+003,3.569153e+001
1.750508e+003,3.506938e+001
1.751472e+003,3.382607e+001
1.752436e+003,3.440581e+001
1.753400e+003,3.593195e+001
1.754365e+003,3.633211e+001
1.755329e+003,3.558388e+001
1.756293e+003,3.571359e+001
1.757257e+003,3.771002e+001
1.758221e+003,3.927431e+001
1.759186e+003,3.802109e+001
1.760150e+003,3.530258e+001
1.761114e+003,3.410802e+001
1.762078e+003,3.413016e+001
1.763043e+003,3.406857e+001
1.764007e+003,3.408917e+001
1.764971e+003,3.347754e+001
1.765935e+003,3.223872e+001
1.766900e+003,3.144060e+001
1.767864e+003,3.197307e+001
1.768828e+003,3.264168e+001
1.769792e+003,3.135274e+001
1.770756e+003,2.907437e+001
1.771721e+003,2.888849e+001
1.772685e+003,3.140987e+001
1.773649e+003,3.404233e+001
1.774613e+003,3.494913e+001
1.775578e+003,3.493578e+001
1.776542e+003,3.512021e+001
1.777506e+003,3.538071e+001
1.778470e+003,3.473070e+001
1.779435e+003,3.239403e+001
1.780399e+003,3.092163e+001
1.781363e+003,3.185210e+001
1.782327e+003,3.275766e+001
1.783292e+003,3.241145e+001
1.784256e+003,3.115570e+001
1.785220e+003,2.907637e+001
1.786184e+003,2.702831e+001
1.787148e+003,2.611249e+001
1.788113e+003,2.630025e+001
1.789077e+003,2.672858e+001
1.790041e+003,2.692569e+001
1.791005e+003,2.711542e+001
1.791970e+003,2.785919e+001
1.792934e+003,2.906631e+001
1.793898e+003,3.040858e+001
1.794862e+003,3.166977e+001
1.795827e+003,3.166847e+001
1.796791e+003,3.003944e+001
1.797755e+003,2.847270e+001
1.798719e+003,2.784561e+001
1.799683e+003,2.784018e+001
1.800648e+003,2.796095e+001
1.801612e+003,2.820259e+001
1.802576e+003,2.953026e+001
1.803540e+003,3.199557e+001
1.804505e+003,3.187712e+001
1.805469e+003,2.752126e+001
1.806433e+003,2.428598e+001
1.807397e+003,2.319847e+001
1.808362e+003,2.327788e+001
1.809326e+003,2.466307e+001
1.810290e+003,2.641353e+001
1.811254e+003,2.738284e+001
1.812219e+003,2.764769e+001
1.813183e+003,2.781487e+001
1.814147e+003,2.790379e+001
1.815111e+003,2.749332e+001
1.816075e+003,2.658835e+001
1.817040e+003,2.575177e+001
1.818004e+003,2.541649e+001
1.818968e+003,2.554376e+001
1.819932e+003,2.558163e+001
1.820897e+003,2.458394e+001
1.821861e+003,2.431824e+001
1.822825e+003,2.613504e+001
1.823789e+003,2.734351e+001
1.824754e+003,2.709439e+001
1.825718e+003,2.684171e+001
1.826682e+003,2.697307e+001
1.827646e+003,2.720720e+001
1.828610e+003,2.756511e+001
1.829575e+003,2.806528e+001
1.830539e+003,2.830576e+001
1.831503e+003,2.804491e+001
1.832467e+003,2.773929e+001
1.833432e+003,2.782597e+001
1.834396e+003,2.786586e+001
1.835360e+003,2.727473e+001
1.836324e+003,2.671544e+001
1.837289e+003,2.726852e+001
1.838253e+003,2.852562e+001
1.839217e+003,2.926247e+001
1.840181e+003,2.921034e+001
1.841146e+003,2.883243e+001
1.842110e+003,2.856996e+001
1.843074e+003,2.857822e+001
1.844038e+003,2.872675e+001
1.845002e+003,2.893146e+001
1.845967e+003,2.965785e+001
1.846931e+003,3.195583e+001
1.847895e+003,3.297273e+001
1.848859e+003,3.113348e+001
1.849824e+003,2.892619e+001
1.850788e+003,2.668007e+001
1.851752e+003,2.561597e+001
1.852716e+003,2.770026e+001
1.853681e+003,3.138213e+001
1.854645e+003,3.422989e+001
1.855609e+003,3.550409e+001
1.856573e+003,3.515007e+001
1.857537e+003,3.311536e+001
1.858502e+003,3.076492e+001
1.859466e+003,3.007614e+001
1.860430e+003,3.043901e+001
1.861394e+003,2.930907e+001
1.862359e+003,2.681841e+001
1.863323e+003,2.564284e+001
1.864287e+003,2.590059e+001
1.865251e+003,2.723599e+001
1.866216e+003,3.044148e+001
1.867180e+003,3.261275e+001
1.868144e+003,3.072430e+001
1.869108e+003,2.756670e+001
1.870073e+003,2.764662e+001
1.871037e+003,3.023853e+001
1.872001e+003,3.106862e+001
1.872965e+003,2.988469e+001
1.873929e+003,2.954379e+001
1.874894e+003,3.072131e+001
1.875858e+003,3.147324e+001
1.876822e+003,3.155119e+001
1.877786e+003,3.121022e+001
1.878751e+003,3.004256e+001
1.879715e+003,2.891800e+001
1.880679e+003,2.884201e+001
1.881643e+003,2.967807e+001
1.882608e+003,3.115234e+001
1.883572e+003,3.295665e+001
1.884536e+003,3.379779e+001
1.885500e+003,3.251288e+001
1.886464e+003,3.042975e+001
1.887429e+003,3.034769e+001
1.888393e+003,3.205246e+001
1.889357e+003,3.260747e+001
1.890321e+003,3.181137e+001
1.891286e+003,3.066405e+001
1.892250e+003,2.891510e+001
1.893214e+003,2.764162e+001
1.894178e+003,2.767592e+001
1.895143e+003,2.865326e+001
1.896107e+003,3.042531e+001
1.897071e+003,3.224326e+001
1.898035e+003,3.254991e+001
1.899000e+003,3.115404e+001
1.899964e+003,2.999620e+001
1.900928e+003,3.040428e+001
1.901892e+003,3.136409e+001
1.902856e+003,3.252655e+001
1.903821e+003,3.304068e+001
1.904785e+003,3.156329e+001
1.905749e+003,2.960205e+001
1.906713e+003,2.941747e+001
1.907678e+003,3.041635e+001
1.908642e+003,3.066479e+001
1.909606e+003,2.984909e+001
1.910570e+003,2.903209e+001
1.911535e+003,2.881915e+001
1.912499e+003,2.884279e+001
1.913463e+003,2.839522e+001
1.914427e+003,2.773238e+001
1.915391e+003,2.890118e+001
1.916356e+003,3.183566e+001
1.917320e+003,3.197781e+001
1.918284e+003,2.912584e+001
1.919248e+003,2.697519e+001
1.920213e+003,2.549655e+001
1.921177e+003,2.570935e+001
1.922141e+003,2.958983e+001
1.923105e+003,3.336018e+001
1.924070e+003,3.234874e+001
1.925034e+003,2.840839e+001
1.925998e+003,2.683847e+001
1.926962e+003,2.771114e+001
1.927927e+003,2.743179e+001
1.928891e+003,2.448987e+001
1.929855e+003,2.316005e+001
1.930819e+003,2.562035e+001
1.931783e+003,2.764110e+001
1.932748e+003,2.672038e+001
1.933712e+003,2.534531e+001
1.934676e+003,2.600900e+001
1.935640e+003,2.774397e+001
1.936605e+003,2.844855e+001
1.937569e+003,2.775635e+001
1.938533e+003,2.674071e+001
1.939497e+003,2.630278e+001
1.940462e+003,2.659311e+001
1.941426e+003,2.741377e+001
1.942390e+003,2.805759e+001
1.943354e+003,2.732556e+001
1.944318e+003,2.546992e+001
1.945283e+003,2.447067e+001
1.946247e+003,2.479013e+001
1.947211e+003,2.522636e+001
1.948175e+003,2.547939e+001
1.949140e+003,2.593423e+001
1.950104e+003,2.644823e+001
1.951068e+003,2.668626e+001
1.952032e+003,2.666985e+001
1.952997e+003,2.657500e+001
1.953961e+003,2.652139e+001
1.954925e+003,2.652034e+001
1.955889e+003,2.591161e+001
1.956854e+003,2.388582e+001
1.957818e+003,2.296758e+001
1.958782e+003,2.446361e+001
1.959746e+003,2.586867e+001
1.960710e+003,2.566943e+001
1.961675e+003,2.480104e+001
1.962639e+003,2.426445e+001
1.963603e+003,2.405902e+001
1.964567e+003,2.374556e+001
1.965532e+003,2.334621e+001
1.966496e+003,2.341830e+001
1.967460e+003,2.417451e+001
1.968424e+003,2.481921e+001
1.969389e+003,2.505771e+001
1.970353e+003,2.484169e+001
1.971317e+003,2.413486e+001
1.972281e+003,2.306300e+001
1.973245e+003,2.116858e+001
1.974210e+003,1.940617e+001
1.975174e+003,2.010371e+001
1.976138e+003,2.285399e+001
1.977102e+003,2.469576e+001
1.978067e+003,2.430470e+001
1.979031e+003,2.260088e+001
1.979995e+003,2.046358e+001
1.980959e+003,1.850206e+001
1.981924e+003,1.774184e+001
1.982888e+003,1.833113e+001
1.983852e+003,2.068796e+001
1.984816e+003,2.479843e+001
1.985781e+003,2.669249e+001
1.986745e+003,2.605002e+001
1.987709e+003,2.445918e+001
1.988673e+003,2.145860e+001
1.989637e+003,1.910287e+001
1.990602e+003,1.892966e+001
1.991566e+003,2.009724e+001
1.992530e+003,2.218861e+001
1.993494e+003,2.527043e+001
1.994459e+003,2.740829e+001
1.995423e+003,2.818828e+001
1.996387e+003,2.821925e+001
1.997351e+003,2.642293e+001
1.998316e+003,2.511313e+001
1.999280e+003,2.588187e+001
2.000244e+003,2.662949e+001
2.001208e+003,2.599481e+001
2.002172e+003,2.492165e+001
2.003137e+003,2.372446e+001
2.004101e+003,2.275612e+001
2.005065e+003,2.278104e+001
2.006029e+003,2.402937e+001
2.006994e+003,2.645099e+001
2.007958e+003,3.011728e+001
2.008922e+003,3.245906e+001
2.009886e+003,3.188382e+001
2.010851e+003,2.998956e+001
2.011815e+003,2.616754e+001
2.012779e+003,2.282466e+001
2.013743e+003,2.505609e+001
2.014708e+003,3.054927e+001
2.015672e+003,3.313634e+001
2.016636e+003,3.199950e+001
2.017600e+003,2.975299e+001
2.018564e+003,2.763843e+001
2.019529e+003,2.576807e+001
2.020493e+003,2.444817e+001
2.021457e+003,2.378397e+001
2.022421e+003,2.366528e+001
2.023386e+003,2.380211e+001
2.024350e+003,2.356779e+001
2.025314e+003,2.303549e+001
2.026278e+003,2.296742e+001
2.027243e+003,2.357976e+001
2.028207e+003,2.435983e+001
2.029171e+003,2.502513e+001
2.030135e+003,2.578621e+001
2.031099e+003,2.687849e+001
2.032064e+003,2.788797e+001
2.033028e+003,2.820290e+001
2.033992e+003,2.755960e+001
2.034956e+003,2.632072e+001
2.035921e+003,2.506415e+001
2.036885e+003,2.447279e+001
2.037849e+003,2.405951e+001
2.038813e+003,2.541705e+001
2.039778e+003,2.998100e+001
2.040742e+003,3.231570e+001
2.041706e+003,2.944293e+001
2.042670e+003,2.600894e+001
2.043635e+003,2.551904e+001
2.044599e+003,2.676607e+001
2.045563e+003,2.818752e+001
2.046527e+003,2.949966e+001
2.047491e+003,2.914149e+001
2.048456e+003,2.617343e+001
2.049420e+003,2.494434e+001
2.050384e+003,2.805029e+001
2.051348e+003,3.029926e+001
2.052313e+003,2.866277e+001
2.053277e+003,2.662621e+001
2.054241e+003,2.747536e+001
2.055205e+003,2.949599e+001
2.056170e+003,2.971681e+001
2.057134e+003,2.810828e+001
2.058098e+003,2.622919e+001
2.059062e+003,2.500644e+001
2.060027e+003,2.517636e+001
2.060991e+003,2.718735e+001
2.061955e+003,2.880623e+001
2.062919e+003,2.719441e+001
2.063884e+003,2.461113e+001
2.064848e+003,2.453844e+001
2.065812e+003,2.584422e+001
2.066776e+003,2.565884e+001
2.067740e+003,2.411655e+001
2.068705e+003,2.299097e+001
2.069669e+003,2.271161e+001
2.070633e+003,2.278424e+001
2.071597e+003,2.288634e+001
2.072562e+003,2.296544e+001
2.073526e+003,2.334419e+001
2.074490e+003,2.396600e+001
2.075454e+003,2.368147e+001
2.076418e+003,2.258441e+001
2.077383e+003,2.229918e+001
2.078347e+003,2.240956e+001
2.079311e+003,2.247792e+001
2.080275e+003,2.324391e+001
2.081240e+003,2.354602e+001
2.082204e+003,2.245805e+001
2.083168e+003,2.160835e+001
2.084132e+003,2.192072e+001
2.085096e+003,2.262349e+001
2.086061e+003,2.335370e+001
2.087025e+003,2.409351e+001
2.087989e+003,2.392972e+001
2.088953e+003,2.283722e+001
2.089918e+003,2.152333e+001
2.090882e+003,1.974500e+001
2.091846e+003,1.859705e+001
2.092810e+003,1.811655e+001
2.093775e+003,1.877631e+001
2.094739e+003,2.143758e+001
2.095703e+003,2.329083e+001
2.096667e+003,2.212036e+001
2.097632e+003,1.960646e+001
2.098596e+003,1.793579e+001
2.099560e+003,1.731599e+001
2.100524e+003,1.749664e+001
2.101489e+003,1.814513e+001
2.102453e+003,1.857820e+001
2.103417e+003,1.916156e+001
2.104381e+003,1.952113e+001
2.105345e+003,1.965485e+001
2.106310e+003,1.975328e+001
2.107274e+003,2.022017e+001
2.108238e+003,2.039812e+001
2.109202e+003,1.899164e+001
2.110167e+003,1.721288e+001
2.111131e+003,1.709769e+001
2.112095e+003,1.794342e+001
2.113059e+003,1.729936e+001
2.114023e+003,1.530023e+001
2.114988e+003,1.515852e+001
2.115952e+003,1.771707e+001
2.116916e+003,1.956108e+001
2.117880e+003,2.007797e+001
2.118845e+003,1.987315e+001
2.119809e+003,1.994037e+001
2.120773e+003,1.998982e+001
2.121737e+003,1.800546e+001
2.122702e+003,1.564247e+001
2.123666e+003,1.648685e+001
2.124630e+003,1.982671e+001
2.125594e+003,2.199878e+001
2.126559e+003,2.221675e+001
2.127523e+003,2.066895e+001
2.128487e+003,1.582832e+001
2.129451e+003,1.244315e+001
2.130416e+003,1.375186e+001
2.131380e+003,1.598761e+001
2.132344e+003,1.643973e+001
2.133308e+003,1.621654e+001
2.134272e+003,1.661378e+001
2.135237e+003,1.723439e+001
2.136201e+003,1.744530e+001
2.137165e+003,1.733778e+001
2.138129e+003,1.741556e+001
2.139094e+003,1.790916e+001
2.140058e+003,1.766339e+001
2.141022e+003,1.481007e+001
2.141986e+003,1.226050e+001
2.142950e+003,1.319183e+001
2.143915e+003,1.554489e+001
2.144879e+003,1.815823e+001
2.145843e+003,1.960191e+001
2.146807e+003,1.668539e+001
2.147772e+003,1.204594e+001
2.148736e+003,1.188904e+001
2.149700e+003,1.615698e+001
2.150664e+003,1.975362e+001
2.151629e+003,2.048322e+001
2.152593e+003,1.887788e+001
2.153557e+003,1.463907e+001
2.154521e+003,1.095181e+001
2.155486e+003,1.204057e+001
2.156450e+003,1.463559e+001
2.157414e+003,1.395500e+001
2.158378e+003,1.170673e+001
2.159343e+003,1.139685e+001
2.160307e+003,1.271748e+001
2.161271e+003,1.332581e+001
2.162235e+003,1.283533e+001
2.163199e+003,1.296475e+001
2.164164e+003,1.448044e+001
2.165128e+003,1.584415e+001
2.166092e+003,1.575990e+001
2.167056e+003,1.498245e+001
2.168021e+003,1.395097e+001
2.168985e+003,1.261943e+001
2.169949e+003,1.134998e+001
2.170913e+003,1.042607e+001
2.171877e+003,1.055756e+001
2.172842e+003,1.153535e+001
2.173806e+003,1.213124e+001
2.174770e+003,1.185103e+001
2.175734e+003,1.018652e+001
2.176699e+003,7.181458e+000
2.177663e+003,5.771271e+000
2.178627e+003,8.834930e+000
2.179591e+003,1.336325e+001
2.180556e+003,1.498018e+001
2.181520e+003,1.430244e+001
2.182484e+003,1.253032e+001
2.183448e+003,1.043877e+001
2.184413e+003,9.602890e+000
2.185377e+003,9.977936e+000
2.186341e+003,1.134409e+001
2.187305e+003,1.319531e+001
2.188270e+003,1.358044e+001
2.189234e+003,1.199402e+001
2.190198e+003,1.096416e+001
2.191162e+003,1.230510e+001
2.192126e+003,1.360536e+001
2.193091e+003,1.158760e+001
2.194055e+003,7.981766e+000
2.195019e+003,6.288757e+000
2.195983e+003,6.191650e+000
2.196948e+003,6.243988e+000
2.197912e+003,6.373001e+000
2.198876e+003,7.415436e+000
2.199840e+003,9.022842e+000
2.200804e+003,8.974548e+000
2.201769e+003,6.627045e+000
2.202733e+003,4.434174e+000
2.203697e+003,4.374298e+000
2.204661e+003,5.367020e+000
2.205626e+003,5.970657e+000
2.206590e+003,6.397995e+000
2.207554e+003,6.899429e+000
2.208518e+003,7.081589e+000
2.209483e+003,6.622025e+000
2.210447e+003,5.792374e+000
2.211411e+003,4.750534e+000
2.212375e+003,3.705338e+000
2.213340e+003,3.337326e+000
2.214304e+003,3.927811e+000
2.215268e+003,5.629166e+000
2.216232e+003,8.298386e+000
2.217197e+003,1.027736e+001
2.218161e+003,1.019078e+001
2.219125e+003,8.615433e+000
2.220089e+003,5.561844e+000
2.221053e+003,2.430527e+000
2.222018e+003,1.585037e+000
2.222982e+003,2.218231e+000
2.223946e+003,3.826187e+000
2.224910e+003,6.083267e+000
2.225875e+003,6.930344e+000
2.226839e+003,6.086990e+000
2.227803e+003,6.158783e+000
2.228767e+003,8.236526e+000
2.229731e+003,9.328308e+000
2.230696e+003,6.655243e+000
2.231660e+003,3.157486e+000
2.232624e+003,3.565155e+000
2.233588e+003,5.564026e+000
2.234553e+003,4.270020e+000
2.235517e+003,1.349274e+000
2.236481e+003,0.000000e+000
2.237445e+003,3.712463e-002
2.238410e+003,8.761444e-001
2.239374e+003,2.337814e+000
2.240338e+003,3.842667e+000
2.241302e+003,5.026413e+000
2.242267e+003,5.550720e+000
2.243231e+003,5.131439e+000
2.244195e+003,4.611359e+000
2.245159e+003,4.743652e+000
2.246124e+003,4.996552e+000
2.247088e+003,5.022995e+000
2.248052e+003,4.602554e+000
2.249016e+003,3.291092e+000
2.249980e+003,1.844284e+000
2.250945e+003,1.496048e+000
2.251909e+003,2.191132e+000
2.252873e+003,2.932800e+000
2.253837e+003,3.310242e+000
2.254802e+003,4.024628e+000
2.255766e+003,5.684448e+000
2.256730e+003,6.412125e+000
2.257694e+003,3.528839e+000
2.258658e+003,7.403412e-001
2.259623e+003,1.179077e+000
2.260587e+003,2.793808e+000
2.261551e+003,4.277222e+000
2.262515e+003,5.395218e+000
2.263480e+003,5.688126e+000
2.264444e+003,5.843552e+000
2.265408e+003,7.294266e+000
2.266372e+003,9.356720e+000
2.267337e+003,9.210922e+000
2.268301e+003,6.197815e+000
2.269265e+003,4.624268e+000
2.270229e+003,7.918564e+000
2.271194e+003,1.140564e+001
2.272158e+003,1.200876e+001
2.273122e+003,1.116019e+001
2.274086e+003,9.071075e+000
2.275051e+003,7.266205e+000
2.276015e+003,7.655365e+000
2.276979e+003,9.068604e+000
2.277943e+003,9.699524e+000
2.278907e+003,9.508545e+000
2.279872e+003,8.958801e+000
2.280836e+003,7.959595e+000
2.281800e+003,7.206451e+000
2.282764e+003,7.371735e+000
2.283729e+003,7.429108e+000
2.284693e+003,7.106827e+000
2.285657e+003,7.445648e+000
2.286621e+003,8.831970e+000
2.287585e+003,9.185974e+000
2.288550e+003,6.398682e+000
2.289514e+003,4.312363e+000
2.290478e+003,7.077942e+000
2.291442e+003,1.207570e+001
2.292407e+003,1.530183e+001
2.293371e+003,1.647946e+001
2.294335e+003,1.467653e+001
2.295299e+003,8.697342e+000
2.296264e+003,6.221237e+000
2.297228e+003,9.115524e+000
2.298192e+003,1.171404e+001
2.299156e+003,1.427945e+001
2.300121e+003,1.588199e+001
2.301085e+003,1.548785e+001
2.302049e+003,1.415204e+001
2.303013e+003,1.210901e+001
2.303978e+003,1.135759e+001
2.304942e+003,1.447563e+001
2.305906e+003,1.901466e+001
2.306870e+003,1.937056e+001
2.307834e+003,1.616463e+001
2.308799e+003,1.540540e+001
2.309763e+003,1.753552e+001
2.310727e+003,1.904605e+001
2.311691e+003,1.952536e+001
2.312656e+003,1.939035e+001
2.313620e+003,1.870753e+001
2.314584e+003,1.887563e+001
2.315548e+003,2.047423e+001
2.316512e+003,2.189519e+001
2.317477e+003,2.225096e+001
2.318441e+003,2.279440e+001
2.319405e+003,2.462723e+001
2.320369e+003,2.707996e+001
2.321334e+003,2.901776e+001
2.322298e+003,3.009583e+001
2.323262e+003,3.002013e+001
2.324226e+003,3.009537e+001
2.325191e+003,3.355548e+001
2.326155e+003,3.914227e+001
2.327119e+003,4.223334e+001
2.328083e+003,4.212450e+001
2.329048e+003,4.147630e+001
2.330012e+003,4.161171e+001
2.330976e+003,4.116258e+001
2.331940e+003,3.849898e+001
2.332905e+003,3.590637e+001
2.333869e+003,3.689616e+001
2.334833e+003,3.885213e+001
2.335797e+003,3.812152e+001
2.336761e+003,3.780220e+001
2.337726e+003,4.202722e+001
2.338690e+003,4.743791e+001
2.339654e+003,4.984224e+001
2.340618e+003,5.020087e+001
2.341583e+003,5.086018e+001
2.342547e+003,5.226129e+001
2.343511e+003,5.375340e+001
2.344475e+003,5.492946e+001
2.345439e+003,5.603357e+001
2.346404e+003,5.674355e+001
2.347368e+003,5.792145e+001
2.348332e+003,6.072203e+001
2.349296e+003,6.379353e+001
2.350261e+003,6.691447e+001
2.351225e+003,6.988806e+001
2.352189e+003,7.195488e+001
2.353153e+003,7.351488e+001
2.354118e+003,7.532935e+001
2.355082e+003,7.693419e+001
2.356046e+003,7.728223e+001
2.357010e+003,7.700871e+001
2.357975e+003,7.895493e+001
2.358939e+003,8.374841e+001
2.359903e+003,8.751083e+001
2.360867e+003,8.913292e+001
2.361832e+003,9.067207e+001
2.362796e+003,9.328517e+001
2.363760e+003,9.547539e+001
2.364724e+003,9.667862e+001
2.365688e+003,9.915221e+001
2.366653e+003,1.037319e+002
2.367617e+003,1.083073e+002
2.368581e+003,1.112286e+002
2.369545e+003,1.128682e+002
2.370510e+003,1.132948e+002
2.371474e+003,1.135072e+002
2.372438e+003,1.175636e+002
2.373402e+003,1.240684e+002
2.374366e+003,1.270066e+002
2.375331e+003,1.269814e+002
2.376295e+003,1.277823e+002
2.377259e+003,1.298677e+002
2.378223e+003,1.322001e+002
2.379188e+003,1.342247e+002
2.380152e+003,1.350949e+002
2.381116e+003,1.345430e+002
2.382080e+003,1.346675e+002
2.383045e+003,1.371950e+002
2.384009e+003,1.401714e+002
2.384973e+003,1.425769e+002
2.385937e+003,1.440643e+002
2.386902e+003,1.436430e+002
2.387866e+003,1.434360e+002
2.388830e+003,1.457532e+002
2.389794e+003,1.483694e+002
2.390759e+003,1.477632e+002
2.391723e+003,1.452406e+002
2.392687e+003,1.450341e+002
2.393651e+003,1.478018e+002
2.394615e+003,1.502582e+002
2.395580e+003,1.511313e+002
2.396544e+003,1.527559e+002
2.397508e+003,1.574762e+002
2.398472e+003,1.593871e+002
2.399437e+003,1.558428e+002
2.400401e+003,1.532731e+002
2.401365e+003,1.532482e+002
2.402329e+003,1.545147e+002
2.403293e+003,1.568687e+002
2.404258e+003,1.590575e+002
2.405222e+003,1.599501e+002
2.406186e+003,1.602250e+002
2.407150e+003,1.606480e+002
2.408115e+003,1.612032e+002
2.409079e+003,1.630683e+002
2.410043e+003,1.660697e+002
2.411007e+003,1.665310e+002
2.411972e+003,1.648437e+002
2.412936e+003,1.656262e+002
2.413900e+003,1.688684e+002
2.414864e+003,1.716308e+002
2.415829e+003,1.732586e+002
2.416793e+003,1.731660e+002
2.417757e+003,1.710644e+002
2.418721e+003,1.701739e+002
2.419686e+003,1.736045e+002
2.420650e+003,1.774183e+002
2.421614e+003,1.765072e+002
2.422578e+003,1.747333e+002
2.423542e+003,1.765415e+002
2.424507e+003,1.789412e+002
2.425471e+003,1.795107e+002
2.426435e+003,1.787024e+002
2.427399e+003,1.754920e+002
2.428364e+003,1.714315e+002
2.429328e+003,1.706379e+002
2.430292e+003,1.731165e+002
2.431256e+003,1.746496e+002
2.432220e+003,1.743873e+002
2.433185e+003,1.737816e+002
2.434149e+003,1.720716e+002
2.435113e+003,1.707169e+002
2.436077e+003,1.700389e+002
2.437042e+003,1.696938e+002
2.438006e+003,1.695228e+002
2.438970e+003,1.701570e+002
2.439934e+003,1.728304e+002
2.440899e+003,1.732192e+002
2.441863e+003,1.673123e+002
2.442827e+003,1.604178e+002
2.443791e+003,1.598311e+002
2.444756e+003,1.629806e+002
2.445720e+003,1.637735e+002
2.446684e+003,1.626232e+002
2.447648e+003,1.611439e+002
2.448613e+003,1.595141e+002
2.449577e+003,1.581999e+002
2.450541e+003,1.571559e+002
2.451505e+003,1.563426e+002
2.452469e+003,1.555572e+002
2.453434e+003,1.536240e+002
2.454398e+003,1.500283e+002
2.455362e+003,1.462012e+002
2.456326e+003,1.437061e+002
2.457291e+003,1.428392e+002
2.458255e+003,1.434578e+002
2.459219e+003,1.444080e+002
2.460183e+003,1.448989e+002
2.461147e+003,1.446141e+002
2.462112e+003,1.445633e+002
2.463076e+003,1.442789e+002
2.464040e+003,1.423823e+002
2.465004e+003,1.394440e+002
2.465969e+003,1.365987e+002
2.466933e+003,1.345421e+002
2.467897e+003,1.335496e+002
2.468861e+003,1.330466e+002
2.469826e+003,1.324563e+002
2.470790e+003,1.320105e+002
2.471754e+003,1.309608e+002
2.472718e+003,1.295942e+002
2.473683e+003,1.278679e+002
2.474647e+003,1.251879e+002
2.475611e+003,1.224837e+002
2.476575e+003,1.205372e+002
2.477540e+003,1.207817e+002
2.478504e+003,1.233186e+002
2.479468e+003,1.246783e+002
2.480432e+003,1.225490e+002
2.481396e+003,1.197424e+002
2.482361e+003,1.192621e+002
2.483325e+003,1.198223e+002
2.484289e+003,1.197596e+002
2.485253e+003,1.190039e+002
2.486218e+003,1.175613e+002
2.487182e+003,1.158254e+002
2.488146e+003,1.138603e+002
2.489110e+003,1.126810e+002
2.490074e+003,1.143091e+002
2.491039e+003,1.176295e+002
2.492003e+003,1.187309e+002
2.492967e+003,1.167618e+002
2.493931e+003,1.153592e+002
2.494896e+003,1.156824e+002
2.495860e+003,1.149094e+002
2.496824e+003,1.126070e+002
2.497788e+003,1.111693e+002
2.498753e+003,1.104541e+002
2.499717e+003,1.112754e+002
2.500681e+003,1.141930e+002
2.501645e+003,1.158885e+002
2.502610e+003,1.145957e+002
2.503574e+003,1.124042e+002
2.504538e+003,1.112310e+002
2.505502e+003,1.109892e+002
2.506467e+003,1.109979e+002
2.507431e+003,1.112116e+002
2.508395e+003,1.127556e+002
2.509359e+003,1.144682e+002
2.510323e+003,1.145348e+002
2.511288e+003,1.137630e+002
2.512252e+003,1.130495e+002
2.513216e+003,1.125238e+002
2.514180e+003,1.121903e+002
2.515145e+003,1.120864e+002
2.516109e+003,1.125479e+002
2.517073e+003,1.134086e+002
2.518037e+003,1.125078e+002
2.519001e+003,1.087190e+002
2.519966e+003,1.065306e+002
2.520930e+003,1.061282e+002
2.521894e+003,1.070414e+002
2.522858e+003,1.097408e+002
2.523823e+003,1.114342e+002
2.524787e+003,1.112141e+002
2.525751e+003,1.116216e+002
2.526715e+003,1.138785e+002
2.527680e+003,1.159545e+002
2.528644e+003,1.164294e+002
2.529608e+003,1.158257e+002
2.530572e+003,1.138702e+002
2.531537e+003,1.117053e+002
2.532501e+003,1.120703e+002
2.533465e+003,1.130805e+002
2.534429e+003,1.121457e+002
2.535394e+003,1.108633e+002
2.536358e+003,1.111294e+002
2.537322e+003,1.116608e+002
2.538286e+003,1.102083e+002
2.539250e+003,1.080001e+002
2.540215e+003,1.085798e+002
2.541179e+003,1.116515e+002
2.542143e+003,1.121441e+002
2.543107e+003,1.098778e+002
2.544072e+003,1.095523e+002
2.545036e+003,1.114999e+002
2.546000e+003,1.115615e+002
2.546964e+003,1.091267e+002
2.547928e+003,1.067923e+002
2.548893e+003,1.050549e+002
2.549857e+003,1.040677e+002
2.550821e+003,1.040255e+002
2.551785e+003,1.052029e+002
2.552750e+003,1.076759e+002
2.553714e+003,1.088144e+002
2.554678e+003,1.058164e+002
2.555642e+003,1.022754e+002
2.556607e+003,1.011042e+002
2.557571e+003,1.008801e+002
2.558535e+003,1.017443e+002
2.559499e+003,1.019112e+002
2.560464e+003,9.918791e+001
2.561428e+003,9.650995e+001
2.562392e+003,9.733017e+001
2.563356e+003,9.924338e+001
2.564321e+003,9.781359e+001
2.565285e+003,9.442175e+001
2.566249e+003,9.323762e+001
2.567213e+003,9.387346e+001
2.568177e+003,9.415196e+001
2.569142e+003,9.419781e+001
2.570106e+003,9.304677e+001
2.571070e+003,9.104903e+001
2.572034e+003,8.882879e+001
2.572999e+003,8.678704e+001
2.573963e+003,8.621944e+001
2.574927e+003,8.684029e+001
2.575891e+003,8.689078e+001
2.576855e+003,8.561639e+001
2.577820e+003,8.446942e+001
2.578784e+003,8.509682e+001
2.579748e+003,8.598916e+001
2.580712e+003,8.695975e+001
2.581677e+003,8.681635e+001
2.582641e+003,8.244824e+001
2.583605e+003,7.904226e+001
2.584569e+003,8.098044e+001
2.585534e+003,8.308634e+001
2.586498e+003,8.227912e+001
2.587462e+003,8.067115e+001
2.588426e+003,8.016225e+001
2.589391e+003,8.013132e+001
2.590355e+003,7.985630e+001
2.591319e+003,7.930366e+001
2.592283e+003,7.786689e+001
2.593248e+003,7.601357e+001
2.594212e+003,7.508267e+001
2.595176e+003,7.477726e+001
2.596140e+003,7.458961e+001
2.597104e+003,7.428571e+001
2.598069e+003,7.362157e+001
2.599033e+003,7.250765e+001
2.599997e+003,7.076810e+001
2.600961e+003,6.874866e+001
2.601926e+003,6.777063e+001
2.602890e+003,6.823209e+001
2.603854e+003,6.799770e+001
2.604818e+003,6.554671e+001
2.605782e+003,6.512921e+001
2.606747e+003,6.835741e+001
2.607711e+003,6.925076e+001
2.608675e+003,6.633485e+001
2.609639e+003,6.373439e+001
2.610604e+003,6.304564e+001
2.611568e+003,6.385703e+001
2.612532e+003,6.579116e+001
2.613496e+003,6.716663e+001
2.614461e+003,6.620972e+001
2.615425e+003,6.460117e+001
2.616389e+003,6.408047e+001
2.617353e+003,6.398627e+001
2.618318e+003,6.520782e+001
2.619282e+003,6.530334e+001
2.620246e+003,6.067666e+001
2.621210e+003,5.662990e+001
2.622175e+003,5.800884e+001
2.623139e+003,6.151694e+001
2.624103e+003,6.401609e+001
2.625067e+003,6.469709e+001
2.626031e+003,6.244940e+001
2.626996e+003,5.892594e+001
2.627960e+003,5.786757e+001
2.628924e+003,5.840524e+001
2.629888e+003,5.938622e+001
2.630853e+003,6.034959e+001
2.631817e+003,6.041872e+001
2.632781e+003,6.073242e+001
2.633745e+003,6.199304e+001
2.634709e+003,6.311118e+001
2.635674e+003,6.331142e+001
2.636638e+003,6.258367e+001
2.637602e+003,6.067997e+001
2.638566e+003,5.798673e+001
2.639531e+003,5.686897e+001
2.640495e+003,5.788744e+001
2.641459e+003,5.730740e+001
2.642423e+003,5.467554e+001
2.643388e+003,5.273628e+001
2.644352e+003,5.171348e+001
2.645316e+003,5.236288e+001
2.646280e+003,5.484986e+001
2.647245e+003,5.512694e+001
2.648209e+003,5.155809e+001
2.649173e+003,4.954115e+001
2.650137e+003,5.329608e+001
2.651102e+003,5.771854e+001
2.652066e+003,5.706575e+001
2.653030e+003,5.505611e+001
2.653994e+003,5.581596e+001
2.654958e+003,5.698862e+001
2.655923e+003,5.718348e+001
2.656887e+003,5.657622e+001
2.657851e+003,5.396666e+001
2.658815e+003,5.088715e+001
2.659780e+003,4.931942e+001
2.660744e+003,4.906302e+001
2.661708e+003,4.970441e+001
2.662672e+003,5.099824e+001
2.663636e+003,5.229502e+001
2.664601e+003,5.292583e+001
2.665565e+003,4.979596e+001
2.666529e+003,4.519431e+001
2.667493e+003,4.370109e+001
2.668458e+003,4.479993e+001
2.669422e+003,4.732667e+001
2.670386e+003,4.961208e+001
2.671350e+003,4.941272e+001
2.672315e+003,4.764386e+001
2.673279e+003,4.747921e+001
2.674243e+003,4.874802e+001
2.675207e+003,4.844804e+001
2.676172e+003,4.622261e+001
2.677136e+003,4.536232e+001
2.678100e+003,4.628764e+001
2.679064e+003,4.618773e+001
2.680029e+003,4.442365e+001
2.680993e+003,4.404269e+001
2.681957e+003,4.573410e+001
2.682921e+003,4.618493e+001
2.683885e+003,4.386829e+001
2.684850e+003,4.126698e+001
2.685814e+003,4.044518e+001
2.686778e+003,4.012358e+001
2.687742e+003,3.877851e+001
2.688707e+003,3.824019e+001
2.689671e+003,3.894265e+001
2.690635e+003,3.867584e+001
2.691599e+003,3.721210e+001
2.692563e+003,3.610677e+001
2.693528e+003,3.603683e+001
2.694492e+003,3.703178e+001
2.695456e+003,3.908527e+001
2.696420e+003,3.982337e+001
2.697385e+003,3.632571e+001
2.698349e+003,3.233176e+001
2.699313e+003,3.271184e+001
2.700277e+003,3.462398e+001
2.701242e+003,3.570528e+001
2.702206e+003,3.563096e+001
2.703170e+003,3.401756e+001
2.704134e+003,3.211883e+001
2.705099e+003,3.102889e+001
2.706063e+003,3.097109e+001
2.707027e+003,3.214488e+001
2.707991e+003,3.356230e+001
2.708956e+003,3.314971e+001
2.709920e+003,3.131967e+001
2.710884e+003,3.067294e+001
2.711848e+003,3.109789e+001
2.712813e+003,3.201195e+001
2.713777e+003,3.283356e+001
2.714741e+003,3.058340e+001
2.715705e+003,2.671786e+001
2.716669e+003,2.642546e+001
2.717634e+003,2.859734e+001
2.718598e+003,2.841607e+001
2.719562e+003,2.645309e+001
2.720526e+003,2.563674e+001
2.721490e+003,2.456396e+001
2.722455e+003,2.365862e+001
2.723419e+003,2.379613e+001
2.724383e+003,2.457137e+001
2.725347e+003,2.576601e+001
2.726312e+003,2.497308e+001
2.727276e+003,2.241544e+001
2.728240e+003,2.280498e+001
2.729204e+003,2.647652e+001
2.730169e+003,2.776198e+001
2.731133e+003,2.463195e+001
2.732097e+003,2.175729e+001
2.733061e+003,2.058787e+001
2.734026e+003,2.012043e+001
2.734990e+003,2.274884e+001
2.735954e+003,2.379368e+001
2.736918e+003,2.139425e+001
2.737883e+003,2.163474e+001
2.738847e+003,2.517157e+001
2.739811e+003,2.694537e+001
2.740775e+003,2.563632e+001
2.741740e+003,2.256922e+001
2.742704e+003,1.899532e+001
2.743668e+003,1.713042e+001
2.744632e+003,1.796146e+001
2.745596e+003,1.872981e+001
2.746561e+003,1.666248e+001
2.747525e+003,1.494446e+001
2.748489e+003,1.673184e+001
2.749453e+003,1.756808e+001
2.750417e+003,1.636060e+001
2.751382e+003,1.495383e+001
2.752346e+003,1.364311e+001
2.753310e+003,1.348006e+001
2.754274e+003,1.522419e+001
2.755239e+003,1.718424e+001
2.756203e+003,1.818343e+001
2.757167e+003,1.818618e+001
2.758131e+003,1.600146e+001
2.759096e+003,1.408647e+001
2.760060e+003,1.455489e+001
2.761024e+003,1.553772e+001
2.761988e+003,1.607709e+001
2.762953e+003,1.629965e+001
2.763917e+003,1.599722e+001
2.764881e+003,1.617981e+001
2.765845e+003,1.791880e+001
2.766810e+003,1.968662e+001
2.767774e+003,1.960230e+001
2.768738e+003,1.869012e+001
2.769702e+003,1.747415e+001
2.770667e+003,1.686005e+001
2.771631e+003,1.754298e+001
2.772595e+003,1.786906e+001
2.773559e+003,1.738126e+001
2.774523e+003,1.717621e+001
2.775488e+003,1.859569e+001
2.776452e+003,2.096770e+001
2.777416e+003,2.189008e+001
2.778380e+003,2.011359e+001
2.779344e+003,1.809232e+001
2.780309e+003,1.720600e+001
2.781273e+003,1.533217e+001
2.782237e+003,1.425687e+001
2.783201e+003,1.539195e+001
2.784166e+003,1.604309e+001
2.785130e+003,1.659538e+001
2.786094e+003,1.681889e+001
2.787058e+003,1.478767e+001
2.788023e+003,1.247475e+001
2.788987e+003,1.292397e+001
2.789951e+003,1.481079e+001
2.790915e+003,1.581195e+001
2.791880e+003,1.615091e+001
2.792844e+003,1.579331e+001
2.793808e+003,1.543340e+001
2.794772e+003,1.680245e+001
2.795737e+003,1.793398e+001
2.796701e+003,1.628454e+001
2.797665e+003,1.380963e+001
2.798629e+003,1.388136e+001
2.799594e+003,1.596971e+001
2.800558e+003,1.610747e+001
2.801522e+003,1.439936e+001
2.802486e+003,1.476570e+001
2.803450e+003,1.644382e+001
2.804415e+003,1.697144e+001
2.805379e+003,1.677374e+001
2.806343e+003,1.807943e+001
2.807307e+003,2.115341e+001
2.808271e+003,2.056737e+001
2.809236e+003,1.609651e+001
2.810200e+003,1.350270e+001
2.811164e+003,1.387479e+001
2.812128e+003,1.371452e+001
2.813093e+003,1.279016e+001
2.814057e+003,1.408273e+001
2.815021e+003,1.620712e+001
2.815985e+003,1.549975e+001
2.816950e+003,1.379657e+001
2.817914e+003,1.312098e+001
2.818878e+003,1.284789e+001
2.819842e+003,1.297044e+001
2.820807e+003,1.375043e+001
2.821771e+003,1.453266e+001
2.822735e+003,1.459431e+001
2.823699e+003,1.447509e+001
2.824664e+003,1.506853e+001
2.825628e+003,1.550861e+001
2.826592e+003,1.628352e+001
2.827556e+003,1.505343e+001
2.828521e+003,1.083203e+001
2.829485e+003,9.447807e+000
2.830449e+003,1.137910e+001
2.831413e+003,1.318941e+001
2.832377e+003,1.389401e+001
2.833342e+003,1.428864e+001
2.834306e+003,1.479993e+001
2.835270e+003,1.494997e+001
2.836234e+003,1.443630e+001
2.837198e+003,1.361270e+001
2.838163e+003,1.255914e+001
2.839127e+003,1.172467e+001
2.840091e+003,1.105111e+001
2.841055e+003,1.119527e+001
2.842020e+003,1.181467e+001
2.842984e+003,1.268005e+001
2.843948e+003,1.370087e+001
2.844912e+003,1.390122e+001
2.845877e+003,1.329848e+001
2.846841e+003,1.308597e+001
2.847805e+003,1.358221e+001
2.848769e+003,1.353960e+001
2.849734e+003,1.236795e+001
2.850698e+003,1.155446e+001
2.851662e+003,1.116030e+001
2.852626e+003,9.811455e+000
2.853591e+003,7.968735e+000
2.854555e+003,8.340721e+000
2.855519e+003,1.047688e+001
2.856483e+003,1.102766e+001
2.857448e+003,9.408981e+000
2.858412e+003,8.455727e+000
2.859376e+003,9.551895e+000
2.860340e+003,9.588318e+000
2.861304e+003,7.089363e+000
2.862269e+003,6.452736e+000
2.863233e+003,7.380707e+000
2.864197e+003,7.816963e+000
2.865161e+003,8.330551e+000
2.866125e+003,9.770195e+000
2.867090e+003,1.143801e+001
2.868054e+003,1.177657e+001
2.869018e+003,1.049206e+001
2.869982e+003,8.502838e+000
2.870947e+003,6.667336e+000
2.871911e+003,6.048409e+000
2.872875e+003,5.740356e+000
2.873839e+003,5.863808e+000
2.874804e+003,6.644119e+000
2.875768e+003,7.038109e+000
2.876732e+003,7.193291e+000
2.877696e+003,8.549484e+000
2.878661e+003,1.068062e+001
2.879625e+003,1.081683e+001
2.880589e+003,8.679688e+000
2.881553e+003,7.778229e+000
2.882518e+003,9.361534e+000
2.883482e+003,9.573303e+000
2.884446e+003,7.762245e+000
2.885410e+003,7.484299e+000
2.886375e+003,8.655403e+000
2.887339e+003,9.430420e+000
2.888303e+003,9.709694e+000
2.889267e+003,9.678421e+000
2.890231e+003,9.685265e+000
2.891196e+003,1.097032e+001
2.892160e+003,1.345982e+001
2.893124e+003,1.460303e+001
2.894088e+003,1.387774e+001
2.895052e+003,1.339654e+001
2.896017e+003,1.311532e+001
2.896981e+003,1.397321e+001
2.897945e+003,1.572874e+001
2.898909e+003,1.668557e+001
2.899874e+003,1.687923e+001
2.900838e+003,1.703747e+001
2.901802e+003,1.725102e+001
2.902766e+003,1.702827e+001
2.903731e+003,1.651842e+001
2.904695e+003,1.744677e+001
2.905659e+003,1.986666e+001
2.906623e+003,2.242508e+001
2.907588e+003,2.501176e+001
2.908552e+003,2.510378e+001
2.909516e+003,2.368148e+001
2.910480e+003,2.463829e+001
2.911445e+003,2.707439e+001
2.912409e+003,2.779041e+001
2.913373e+003,2.712138e+001
2.914337e+003,2.736595e+001
2.915302e+003,2.859346e+001
2.916266e+003,2.989406e+001
2.917230e+003,3.119272e+001
2.918194e+003,3.122761e+001
2.919158e+003,3.054707e+001
2.920123e+003,3.202757e+001
2.921087e+003,3.448710e+001
2.922051e+003,3.532073e+001
2.923015e+003,3.492178e+001
2.923979e+003,3.391031e+001
2.924944e+003,3.305444e+001
2.925908e+003,3.394983e+001
2.926872e+003,3.586891e+001
2.927836e+003,3.647191e+001
2.928801e+003,3.617509e+001
2.929765e+003,3.638582e+001
2.930729e+003,3.738899e+001
2.931693e+003,4.065359e+001
2.932658e+003,4.438458e+001
2.933622e+003,4.609546e+001
2.934586e+003,4.649777e+001
2.935550e+003,4.625058e+001
2.936515e+003,4.630016e+001
2.937479e+003,4.802431e+001
2.938443e+003,5.052675e+001
2.939407e+003,5.200266e+001
2.940372e+003,5.248253e+001
2.941336e+003,5.119183e+001
2.942300e+003,4.983054e+001
2.943264e+003,5.071750e+001
2.944229e+003,5.241064e+001
2.945193e+003,5.361846e+001
2.946157e+003,5.466498e+001
2.947121e+003,5.594108e+001
2.948085e+003,5.706474e+001
2.949050e+003,5.758929e+001
2.950014e+003,5.767566e+001
2.950978e+003,5.714582e+001
2.951942e+003,5.691222e+001
2.952906e+003,5.849968e+001
2.953871e+003,6.014429e+001
2.954835e+003,6.039112e+001
2.955799e+003,6.049055e+001
2.956763e+003,6.110064e+001
2.957728e+003,6.185014e+001
2.958692e+003,6.252528e+001
2.959656e+003,6.300410e+001
2.960620e+003,6.316182e+001
2.961585e+003,6.321880e+001
2.962549e+003,6.287407e+001
2.963513e+003,6.328913e+001
2.964477e+003,6.523450e+001
2.965442e+003,6.811770e+001
2.966406e+003,7.286913e+001
2.967370e+003,7.436803e+001
2.968334e+003,7.082479e+001
2.969299e+003,6.755872e+001
2.970263e+003,6.720888e+001
2.971227e+003,6.800463e+001
2.972191e+003,6.902885e+001
2.973156e+003,6.992239e+001
2.974120e+003,7.086561e+001
2.975084e+003,7.073445e+001
2.976048e+003,6.839555e+001
2.977012e+003,6.978819e+001
2.977977e+003,7.566432e+001
2.978941e+003,7.796533e+001
2.979905e+003,7.534754e+001
2.980869e+003,7.325565e+001
2.981833e+003,7.357224e+001
2.982798e+003,7.481043e+001
2.983762e+003,7.672363e+001
2.984726e+003,7.839008e+001
2.985690e+003,7.989145e+001
2.986655e+003,8.041445e+001
2.987619e+003,8.000067e+001
2.988583e+003,7.953550e+001
2.989547e+003,7.904234e+001
2.990512e+003,7.744319e+001
2.991476e+003,7.557429e+001
2.992440e+003,7.681084e+001
2.993404e+003,8.119045e+001
2.994369e+003,8.424277e+001
2.995333e+003,8.589594e+001
2.996297e+003,8.753039e+001
2.997261e+003,8.898001e+001
2.998226e+003,8.888734e+001
2.999190e+003,8.794606e+001
3.000154e+003,8.775957e+001
3.001118e+003,8.802592e+001
3.002083e+003,8.768874e+001
3.003047e+003,8.734484e+001
3.004011e+003,8.855658e+001
3.004975e+003,9.025040e+001
3.005939e+003,8.950173e+001
3.006904e+003,8.784069e+001
3.007868e+003,8.993350e+001
3.008832e+003,9.332835e+001
3.009796e+003,9.473499e+001
3.010760e+003,9.521039e+001
3.011725e+003,9.587338e+001
3.012689e+003,9.626099e+001
3.013653e+003,9.585274e+001
3.014617e+003,9.524034e+001
3.015582e+003,9.491294e+001
3.016546e+003,9.551722e+001
3.017510e+003,9.850029e+001
3.018474e+003,1.015643e+002
3.019439e+003,1.027034e+002
3.020403e+003,1.029851e+002
3.021367e+003,1.021442e+002
3.022331e+003,1.020812e+002
3.023296e+003,1.035366e+002
3.024260e+003,1.047288e+002
3.025224e+003,1.048376e+002
3.026188e+003,1.055112e+002
3.027153e+003,1.078526e+002
3.028117e+003,1.095763e+002
3.029081e+003,1.086536e+002
3.030045e+003,1.083292e+002
3.031010e+003,1.092133e+002
3.031974e+003,1.103475e+002
3.032938e+003,1.116234e+002
3.033902e+003,1.143305e+002
3.034866e+003,1.180347e+002
3.035831e+003,1.187160e+002
3.036795e+003,1.158936e+002
3.037759e+003,1.137876e+002
3.038723e+003,1.135172e+002
3.039688e+003,1.155314e+002
3.040652e+003,1.204273e+002
3.041616e+003,1.217920e+002
3.042580e+003,1.202751e+002
3.043544e+003,1.199134e+002
3.044509e+003,1.204956e+002
3.045473e+003,1.199193e+002
3.046437e+003,1.191113e+002
3.047401e+003,1.217247e+002
3.048366e+003,1.260512e+002
3.049330e+003,1.266606e+002
3.050294e+003,1.245667e+002
3.051258e+003,1.229104e+002
3.052223e+003,1.220761e+002
3.053187e+003,1.232525e+002
3.054151e+003,1.254899e+002
3.055115e+003,1.278302e+002
3.056080e+003,1.303833e+002
3.057044e+003,1.341457e+002
3.058008e+003,1.366320e+002
3.058972e+003,1.354621e+002
3.059937e+003,1.328944e+002
3.060901e+003,1.311003e+002
3.061865e+003,1.311789e+002
3.062829e+003,1.360964e+002
3.063793e+003,1.406835e+002
3.064758e+003,1.424330e+002
3.065722e+003,1.418684e+002
3.066686e+003,1.384239e+002
3.067650e+003,1.371439e+002
3.068615e+003,1.398301e+002
3.069579e+003,1.425061e+002
3.070543e+003,1.431422e+002
3.071507e+003,1.432936e+002
3.072471e+003,1.433896e+002
3.073436e+003,1.442697e+002
3.074400e+003,1.463584e+002
3.075364e+003,1.480401e+002
3.076328e+003,1.491684e+002
3.077293e+003,1.487236e+002
3.078257e+003,1.471369e+002
3.079221e+003,1.464594e+002
3.080185e+003,1.469470e+002
3.081150e+003,1.478610e+002
3.082114e+003,1.489398e+002
3.083078e+003,1.490092e+002
3.084042e+003,1.482406e+002
3.085007e+003,1.495248e+002
3.085971e+003,1.518755e+002
3.086935e+003,1.523241e+002
3.087899e+003,1.518115e+002
3.088864e+003,1.519503e+002
3.089828e+003,1.524497e+002
3.090792e+003,1.526390e+002
3.091756e+003,1.527796e+002
3.092720e+003,1.531785e+002
3.093685e+003,1.539731e+002
3.094649e+003,1.559078e+002
3.095613e+003,1.576488e+002
3.096577e+003,1.576522e+002
3.097542e+003,1.569221e+002
3.098506e+003,1.553234e+002
3.099470e+003,1.545032e+002
3.100434e+003,1.550679e+002
3.101398e+003,1.562968e+002
3.102363e+003,1.577952e+002
3.103327e+003,1.597848e+002
3.104291e+003,1.627959e+002
3.105255e+003,1.633583e+002
3.106220e+003,1.566429e+002
3.107184e+003,1.542224e+002
3.108148e+003,1.573493e+002
3.109112e+003,1.597329e+002
3.110077e+003,1.606853e+002
3.111041e+003,1.613216e+002
3.112005e+003,1.619296e+002
3.112969e+003,1.622751e+002
3.113934e+003,1.625385e+002
3.114898e+003,1.641976e+002
3.115862e+003,1.670912e+002
3.116826e+003,1.691107e+002
3.117791e+003,1.704599e+002
3.118755e+003,1.723251e+002
3.119719e+003,1.741038e+002
3.120683e+003,1.748779e+002
3.121647e+003,1.746300e+002
3.122612e+003,1.718248e+002
3.123576e+003,1.702347e+002
3.124540e+003,1.741357e+002
3.125504e+003,1.793607e+002
3.126469e+003,1.799135e+002
3.127433e+003,1.784872e+002
3.128397e+003,1.776349e+002
3.129361e+003,1.770075e+002
3.130325e+003,1.762372e+002
3.131290e+003,1.758606e+002
3.132254e+003,1.759017e+002
3.133218e+003,1.777139e+002
3.134182e+003,1.815842e+002
3.135147e+003,1.843813e+002
3.136111e+003,1.845794e+002
3.137075e+003,1.841904e+002
3.138039e+003,1.835118e+002
3.139004e+003,1.840126e+002
3.139968e+003,1.859161e+002
3.140932e+003,1.865098e+002
3.141896e+003,1.859352e+002
3.142861e+003,1.857086e+002
3.143825e+003,1.859536e+002
3.144789e+003,1.861812e+002
3.145753e+003,1.865326e+002
3.146718e+003,1.876591e+002
3.147682e+003,1.893515e+002
3.148646e+003,1.909921e+002
3.149610e+003,1.924865e+002
3.150574e+003,1.933740e+002
3.151539e+003,1.941990e+002
3.152503e+003,1.962569e+002
3.153467e+003,1.977523e+002
3.154431e+003,1.972424e+002
3.155396e+003,1.955540e+002
3.156360e+003,1.930537e+002
3.157324e+003,1.917233e+002
3.158288e+003,1.932946e+002
3.159252e+003,1.964200e+002
3.160217e+003,2.023359e+002
3.161181e+003,2.052778e+002
3.162145e+003,2.029298e+002
3.163109e+003,2.016259e+002
3.164074e+003,2.022596e+002
3.165038e+003,2.049556e+002
3.166002e+003,2.087442e+002
3.166966e+003,2.092651e+002
3.167931e+003,2.059576e+002
3.168895e+003,2.039553e+002
3.169859e+003,2.037233e+002
3.170823e+003,2.058743e+002
3.171788e+003,2.096980e+002
3.172752e+003,2.114279e+002
3.173716e+003,2.111924e+002
3.174680e+003,2.071469e+002
3.175645e+003,2.036390e+002
3.176609e+003,2.088841e+002
3.177573e+003,2.148456e+002
3.178537e+003,2.133133e+002
3.179501e+003,2.091503e+002
3.180466e+003,2.086150e+002
3.181430e+003,2.094089e+002
3.182394e+003,2.089640e+002
3.183358e+003,2.096927e+002
3.184323e+003,2.136262e+002
3.185287e+003,2.162120e+002
3.186251e+003,2.164000e+002
3.187215e+003,2.161261e+002
3.188179e+003,2.162010e+002
3.189144e+003,2.172425e+002
3.190108e+003,2.194911e+002
3.191072e+003,2.203814e+002
3.192036e+003,2.194022e+002
3.193001e+003,2.181341e+002
3.193965e+003,2.167753e+002
3.194929e+003,2.173962e+002
3.195893e+003,2.188006e+002
3.196858e+003,2.176688e+002
3.197822e+003,2.154358e+002
3.198786e+003,2.150524e+002
3.199750e+003,2.162676e+002
3.200715e+003,2.189619e+002
3.201679e+003,2.218132e+002
3.202643e+003,2.228915e+002
3.203607e+003,2.221583e+002
3.204572e+003,2.166697e+002
3.205536e+003,2.141535e+002
3.206500e+003,2.197909e+002
3.207464e+003,2.235696e+002
3.208428e+003,2.223322e+002
3.209393e+003,2.215402e+002
3.210357e+003,2.235102e+002
3.211321e+003,2.258870e+002
3.212285e+003,2.279006e+002
3.213250e+003,2.284705e+002
3.214214e+003,2.272059e+002
3.215178e+003,2.281284e+002
3.216142e+003,2.304600e+002
3.217106e+003,2.291869e+002
3.218071e+003,2.261630e+002
3.219035e+003,2.264465e+002
3.219999e+003,2.290801e+002
3.220963e+003,2.307552e+002
3.221928e+003,2.321289e+002
3.222892e+003,2.347475e+002
3.223856e+003,2.373877e+002
3.224820e+003,2.378061e+002
3.225785e+003,2.375169e+002
3.226749e+003,2.375272e+002
3.227713e+003,2.375779e+002
3.228677e+003,2.376372e+002
3.229642e+003,2.372163e+002
3.230606e+003,2.361539e+002
3.231570e+003,2.345174e+002
3.232534e+003,2.323499e+002
3.233499e+003,2.324979e+002
3.234463e+003,2.368389e+002
3.235427e+003,2.402554e+002
3.236391e+003,2.427393e+002
3.237355e+003,2.441792e+002
3.238320e+003,2.447344e+002
3.239284e+003,2.442617e+002
3.240248e+003,2.436255e+002
3.241212e+003,2.447529e+002
3.242177e+003,2.466491e+002
3.243141e+003,2.479350e+002
3.244105e+003,2.484920e+002
3.245069e+003,2.471499e+002
3.246033e+003,2.462629e+002
3.246998e+003,2.494558e+002
3.247962e+003,2.520349e+002
3.248926e+003,2.516543e+002
3.249890e+003,2.512786e+002
3.250855e+003,2.517826e+002
3.251819e+003,2.518592e+002
3.252783e+003,2.511838e+002
3.253747e+003,2.521429e+002
3.254712e+003,2.559482e+002
3.255676e+003,2.587711e+002
3.256640e+003,2.604474e+002
3.257604e+003,2.612899e+002
3.258569e+003,2.613676e+002
3.259533e+003,2.605027e+002
3.260497e+003,2.592950e+002
3.261461e+003,2.586370e+002
3.262426e+003,2.584194e+002
3.263390e+003,2.583412e+002
3.264354e+003,2.586569e+002
3.265318e+003,2.596931e+002
3.266282e+003,2.614020e+002
3.267247e+003,2.643649e+002
3.268211e+003,2.669553e+002
3.269175e+003,2.685898e+002
3.270139e+003,2.692883e+002
3.271104e+003,2.690984e+002
3.272068e+003,2.691320e+002
3.273032e+003,2.698884e+002
3.273996e+003,2.726171e+002
3.274960e+003,2.773723e+002
3.275925e+003,2.778243e+002
3.276889e+003,2.739645e+002
3.277853e+003,2.718212e+002
3.278817e+003,2.713045e+002
3.279782e+003,2.731011e+002
3.280746e+003,2.754760e+002
3.281710e+003,2.756484e+002
3.282674e+003,2.756653e+002
3.283639e+003,2.774312e+002
3.284603e+003,2.796016e+002
3.285567e+003,2.809959e+002
3.286531e+003,2.816255e+002
3.287496e+003,2.808491e+002
3.288460e+003,2.805579e+002
3.289424e+003,2.813469e+002
3.290388e+003,2.820753e+002
3.291353e+003,2.826528e+002
3.292317e+003,2.840891e+002
3.293281e+003,2.859170e+002
3.294245e+003,2.851023e+002
3.295209e+003,2.823772e+002
3.296174e+003,2.839868e+002
3.297138e+003,2.883516e+002
3.298102e+003,2.879830e+002
3.299066e+003,2.858012e+002
3.300031e+003,2.879019e+002
3.300995e+003,2.904858e+002
3.301959e+003,2.892009e+002
3.302923e+003,2.880980e+002
3.303887e+003,2.889160e+002
3.304852e+003,2.909768e+002
3.305816e+003,2.938576e+002
3.306780e+003,2.959907e+002
3.307744e+003,2.965275e+002
3.308709e+003,2.959236e+002
3.309673e+003,2.941188e+002
3.310637e+003,2.927013e+002
3.311601e+003,2.922114e+002
3.312566e+003,2.955601e+002
3.313530e+003,3.005396e+002
3.314494e+003,3.017557e+002
3.315458e+003,3.006204e+002
3.316423e+003,3.002654e+002
3.317387e+003,2.998431e+002
3.318351e+003,2.969057e+002
3.319315e+003,2.947302e+002
3.320280e+003,2.973605e+002
3.321244e+003,3.009952e+002
3.322208e+003,3.047546e+002
3.323172e+003,3.063728e+002
3.324136e+003,3.055604e+002
3.325101e+003,3.058326e+002
3.326065e+003,3.080168e+002
3.327029e+003,3.089727e+002
3.327993e+003,3.080148e+002
3.328958e+003,3.087293e+002
3.329922e+003,3.109753e+002
3.330886e+003,3.148230e+002
3.331850e+003,3.183762e+002
3.332814e+003,3.175422e+002
3.333779e+003,3.153768e+002
3.334743e+003,3.144767e+002
3.335707e+003,3.159354e+002
3.336671e+003,3.207715e+002
3.337636e+003,3.232985e+002
3.338600e+003,3.173957e+002
3.339564e+003,3.137538e+002
3.340528e+003,3.194815e+002
3.341493e+003,3.219543e+002
3.342457e+003,3.208275e+002
3.343421e+003,3.214112e+002
3.344385e+003,3.237240e+002
3.345350e+003,3.257869e+002
3.346314e+003,3.270598e+002
3.347278e+003,3.270309e+002
3.348242e+003,3.266411e+002
3.349207e+003,3.279172e+002
3.350171e+003,3.301776e+002
3.351135e+003,3.335370e+002
3.352099e+003,3.356277e+002
3.353063e+003,3.331880e+002
3.354028e+003,3.330770e+002
3.354992e+003,3.370206e+002
3.355956e+003,3.384457e+002
3.356920e+003,3.356360e+002
3.357885e+003,3.347541e+002
3.358849e+003,3.379199e+002
3.359813e+003,3.398757e+002
3.360777e+003,3.405137e+002
3.361741e+003,3.405441e+002
3.362706e+003,3.405006e+002
3.363670e+003,3.416754e+002
3.364634e+003,3.433328e+002
3.365598e+003,3.448585e+002
3.366563e+003,3.457709e+002
3.367527e+003,3.457622e+002
3.368491e+003,3.442290e+002
3.369455e+003,3.395068e+002
3.370420e+003,3.388068e+002
3.371384e+003,3.502608e+002
3.372348e+003,3.561228e+002
3.373312e+003,3.559321e+002
3.374277e+003,3.546789e+002
3.375241e+003,3.533892e+002
3.376205e+003,3.526847e+002
3.377169e+003,3.526098e+002
3.378134e+003,3.529547e+002
3.379098e+003,3.536069e+002
3.380062e+003,3.544630e+002
3.381026e+003,3.553859e+002
3.381990e+003,3.567116e+002
3.382955e+003,3.570911e+002
3.383919e+003,3.553159e+002
3.384883e+003,3.537310e+002
3.385847e+003,3.529153e+002
3.386812e+003,3.542708e+002
3.387776e+003,3.574595e+002
3.388740e+003,3.578673e+002
3.389704e+003,3.547473e+002
3.390668e+003,3.550023e+002
3.391633e+003,3.577870e+002
3.392597e+003,3.576482e+002
3.393561e+003,3.566305e+002
3.394525e+003,3.577102e+002
3.395490e+003,3.597553e+002
3.396454e+003,3.620295e+002
3.397418e+003,3.632922e+002
3.398382e+003,3.628824e+002
3.399347e+003,3.633721e+002
3.400311e+003,3.669202e+002
3.401275e+003,3.671738e+002
3.402239e+003,3.621046e+002
3.403204e+003,3.588174e+002
3.404168e+003,3.576629e+002
3.405132e+003,3.604199e+002
3.406096e+003,3.651043e+002
3.407061e+003,3.689873e+002
3.408025e+003,3.704387e+002
3.408989e+003,3.675276e+002
3.409953e+003,3.646730e+002
3.410917e+003,3.680651e+002
3.411882e+003,3.713734e+002
3.412846e+003,3.683096e+002
3.413810e+003,3.680538e+002
3.414774e+003,3.720389e+002
3.415739e+003,3.740458e+002
3.416703e+003,3.734520e+002
3.417667e+003,3.719474e+002
3.418631e+003,3.702488e+002
3.419595e+003,3.690327e+002
3.420560e+003,3.686559e+002
3.421524e+003,3.707235e+002
3.422488e+003,3.733343e+002
3.423452e+003,3.726806e+002
3.424417e+003,3.723498e+002
3.425381e+003,3.749116e+002
3.426345e+003,3.771393e+002
3.427309e+003,3.781742e+002
3.428274e+003,3.788606e+002
3.429238e+003,3.794706e+002
3.430202e+003,3.794398e+002
3.431166e+003,3.786898e+002
3.432131e+003,3.784778e+002
3.433095e+003,3.787208e+002
3.434059e+003,3.786425e+002
3.435023e+003,3.792233e+002
3.435988e+003,3.826396e+002
3.436952e+003,3.861995e+002
3.437916e+003,3.883182e+002
3.438880e+003,3.894573e+002
3.439844e+003,3.898984e+002
3.440809e+003,3.900502e+002
3.441773e+003,3.899693e+002
3.442737e+003,3.906237e+002
3.443701e+003,3.920742e+002
3.444666e+003,3.895977e+002
3.445630e+003,3.855674e+002
3.446594e+003,3.875882e+002
3.447558e+003,3.915895e+002
3.448522e+003,3.904681e+002
3.449487e+003,3.888799e+002
3.450451e+003,3.915314e+002
3.451415e+003,3.950818e+002
3.452379e+003,3.967817e+002
3.453344e+003,3.972756e+002
3.454308e+003,3.960421e+002
3.455272e+003,3.978690e+002
3.456236e+003,4.022473e+002
3.457201e+003,4.038259e+002
3.458165e+003,4.030764e+002
3.459129e+003,4.033358e+002
3.460093e+003,4.046968e+002
3.461058e+003,4.070507e+002
3.462022e+003,4.091397e+002
3.462986e+003,4.074438e+002
3.463950e+003,4.067530e+002
3.464915e+003,4.124800e+002
3.465879e+003,4.152145e+002
3.466843e+003,4.136190e+002
3.467807e+003,4.121454e+002
3.468771e+003,4.120159e+002
3.469736e+003,4.135848e+002
3.470700e+003,4.161652e+002
3.471664e+003,4.160173e+002
3.472628e+003,4.149774e+002
3.473593e+003,4.200082e+002
3.474557e+003,4.258428e+002
3.475521e+003,4.262919e+002
3.476485e+003,4.259142e+002
3.477449e+003,4.265292e+002
3.478414e+003,4.265385e+002
3.479378e+003,4.256411e+002
3.480342e+003,4.265061e+002
3.481306e+003,4.299501e+002
3.482271e+003,4.311459e+002
3.483235e+003,4.303972e+002
3.484199e+003,4.325626e+002
3.485163e+003,4.355885e+002
3.486128e+003,4.350841e+002
3.487092e+003,4.354823e+002
3.488056e+003,4.403711e+002
3.489020e+003,4.441690e+002
3.489985e+003,4.440075e+002
3.490949e+003,4.425771e+002
3.491913e+003,4.409007e+002
3.492877e+003,4.414255e+002
3.493842e+003,4.443162e+002
3.494806e+003,4.436979e+002
3.495770e+003,4.414471e+002
3.496734e+003,4.417341e+002
3.497698e+003,4.444933e+002
3.498663e+003,4.499697e+002
3.499627e+003,4.540569e+002
3.500591e+003,0.000000e+000
