9.974011e+001,5.496332e+002
1.007043e+002,5.505393e+002
1.016686e+002,5.528735e+002
1.026328e+002,5.567444e+002
1.035970e+002,5.585862e+002
1.045613e+002,5.591621e+002
1.055255e+002,5.582601e+002
1.064897e+002,5.552487e+002
1.074540e+002,5.472303e+002
1.084182e+002,5.396254e+002
1.093824e+002,5.319205e+002
1.103467e+002,5.243656e+002
1.113109e+002,5.182994e+002
1.122751e+002,5.172841e+002
1.132394e+002,5.186841e+002
1.142036e+002,5.218357e+002
1.151678e+002,5.258986e+002
1.161321e+002,5.290878e+002
1.170963e+002,5.279681e+002
1.180605e+002,5.238069e+002
1.190248e+002,5.182030e+002
1.199890e+002,5.128673e+002
1.209532e+002,5.085517e+002
1.219175e+002,5.064355e+002
1.228817e+002,5.076288e+002
1.238459e+002,5.103598e+002
1.248102e+002,5.111777e+002
1.257744e+002,5.074834e+002
1.267386e+002,5.039612e+002
1.277029e+002,5.004964e+002
1.286671e+002,4.971096e+002
1.296313e+002,4.940224e+002
1.305956e+002,4.918423e+002
1.315598e+002,4.902372e+002
1.325240e+002,4.896463e+002
1.334883e+002,4.901798e+002
1.344525e+002,4.911851e+002
1.354167e+002,4.903772e+002
1.363810e+002,4.884250e+002
1.373452e+002,4.864008e+002
1.383094e+002,4.852867e+002
1.392737e+002,4.854640e+002
1.402379e+002,4.842834e+002
1.412021e+002,4.808709e+002
1.421664e+002,4.766315e+002
1.431306e+002,4.737958e+002
1.440948e+002,4.744983e+002
1.450591e+002,4.747510e+002
1.460233e+002,4.737837e+002
1.469875e+002,4.717340e+002
1.479518e+002,4.693266e+002
1.489160e+002,4.659805e+002
1.498802e+002,4.629187e+002
1.508445e+002,4.612831e+002
1.518087e+002,4.614203e+002
1.527729e+002,4.628542e+002
1.537372e+002,4.643608e+002
1.547014e+002,4.648650e+002
1.556656e+002,4.631083e+002
1.566299e+002,4.583957e+002
1.575941e+002,4.507262e+002
1.585583e+002,4.452811e+002
1.595226e+002,4.419013e+002
1.604868e+002,4.402164e+002
1.614510e+002,4.401909e+002
1.624153e+002,4.435019e+002
1.633795e+002,4.438236e+002
1.643438e+002,4.390453e+002
1.653080e+002,4.323452e+002
1.662722e+002,4.282039e+002
1.672365e+002,4.315579e+002
1.682007e+002,4.354099e+002
1.691649e+002,4.370598e+002
1.701292e+002,4.365247e+002
1.710934e+002,4.349076e+002
1.720576e+002,4.336334e+002
1.730219e+002,4.323692e+002
1.739861e+002,4.307448e+002
1.749503e+002,4.284250e+002
1.759146e+002,4.250822e+002
1.768788e+002,4.212344e+002
1.778430e+002,4.175054e+002
1.788073e+002,4.150375e+002
1.797715e+002,4.149587e+002
1.807357e+002,4.184582e+002
1.817000e+002,4.206802e+002
1.826642e+002,4.199455e+002
1.836284e+002,4.177728e+002
1.845927e+002,4.151789e+002
1.855569e+002,4.125763e+002
1.865211e+002,4.095947e+002
1.874854e+002,4.067721e+002
1.884496e+002,4.043930e+002
1.894138e+002,4.025665e+002
1.903781e+002,4.011646e+002
1.913423e+002,4.005551e+002
1.923065e+002,4.011803e+002
1.932708e+002,4.027044e+002
1.942350e+002,4.042852e+002
1.951992e+002,4.038286e+002
1.961635e+002,4.006352e+002
1.971277e+002,3.980914e+002
1.980919e+002,3.970805e+002
1.990562e+002,3.976003e+002
2.000204e+002,3.977773e+002
2.009846e+002,3.969436e+002
2.019489e+002,3.958339e+002
2.029131e+002,3.947243e+002
2.038773e+002,3.937617e+002
2.048416e+002,3.928321e+002
2.058058e+002,3.913032e+002
2.067700e+002,3.898319e+002
2.077343e+002,3.891078e+002
2.086985e+002,3.896159e+002
2.096627e+002,3.907899e+002
2.106270e+002,3.904310e+002
2.115912e+002,3.888664e+002
2.125554e+002,3.870479e+002
2.135197e+002,3.860324e+002
2.144839e+002,3.861313e+002
2.154481e+002,3.856423e+002
2.164124e+002,3.847777e+002
2.173766e+002,3.837537e+002
2.183408e+002,3.827667e+002
2.193051e+002,3.815793e+002
2.202693e+002,3.805063e+002
2.212335e+002,3.789094e+002
2.221978e+002,3.772376e+002
2.231620e+002,3.765281e+002
2.241262e+002,3.796061e+002
2.250904e+002,3.835378e+002
2.260547e+002,3.859934e+002
2.270189e+002,3.864178e+002
2.279831e+002,3.851646e+002
2.289474e+002,3.835569e+002
2.299116e+002,3.820023e+002
2.308758e+002,3.805945e+002
2.318401e+002,3.793619e+002
2.328043e+002,3.783730e+002
2.337685e+002,3.788370e+002
2.347328e+002,3.813235e+002
2.356970e+002,3.828628e+002
2.366612e+002,3.818989e+002
2.376255e+002,3.779186e+002
2.385897e+002,3.752256e+002
2.395539e+002,3.764435e+002
2.405182e+002,3.783559e+002
2.414824e+002,3.787430e+002
2.424466e+002,3.760990e+002
2.434109e+002,3.727766e+002
2.443751e+002,3.715668e+002
2.453393e+002,3.716192e+002
2.463036e+002,3.721709e+002
2.472678e+002,3.725099e+002
2.482320e+002,3.728610e+002
2.491963e+002,3.729857e+002
2.501605e+002,3.723628e+002
2.511247e+002,3.718179e+002
2.520890e+002,3.728690e+002
2.530532e+002,3.780150e+002
2.540174e+002,3.811302e+002
2.549817e+002,3.812560e+002
2.559459e+002,3.798428e+002
2.569102e+002,3.793303e+002
2.578744e+002,3.809171e+002
2.588386e+002,3.819077e+002
2.598029e+002,3.821095e+002
2.607671e+002,3.817141e+002
2.617313e+002,3.810251e+002
2.626956e+002,3.798318e+002
2.636598e+002,3.788706e+002
2.646240e+002,3.788310e+002
2.655883e+002,3.796116e+002
2.665525e+002,3.807252e+002
2.675167e+002,3.810661e+002
2.684810e+002,3.808694e+002
2.694452e+002,3.809808e+002
2.704094e+002,3.817207e+002
2.713737e+002,3.831036e+002
2.723379e+002,3.843914e+002
2.733021e+002,3.857533e+002
2.742664e+002,3.861560e+002
2.752306e+002,3.848819e+002
2.761948e+002,3.818921e+002
2.771591e+002,3.792405e+002
2.781233e+002,3.786398e+002
2.790875e+002,3.793012e+002
2.800518e+002,3.809245e+002
2.810160e+002,3.831860e+002
2.819802e+002,3.856644e+002
2.829445e+002,3.874973e+002
2.839087e+002,3.888481e+002
2.848729e+002,3.897943e+002
2.858372e+002,3.903813e+002
2.868014e+002,3.905549e+002
2.877656e+002,3.910409e+002
2.887299e+002,3.917186e+002
2.896941e+002,3.919957e+002
2.906583e+002,3.914679e+002
2.916226e+002,3.900363e+002
2.925868e+002,3.891330e+002
2.935510e+002,3.890852e+002
2.945153e+002,3.894939e+002
2.954795e+002,3.898188e+002
2.964437e+002,3.894296e+002
2.974080e+002,3.890148e+002
2.983722e+002,3.901132e+002
2.993364e+002,3.922212e+002
3.003007e+002,3.943570e+002
3.012649e+002,3.952131e+002
3.022291e+002,3.945208e+002
3.031934e+002,3.943842e+002
3.041576e+002,3.950926e+002
3.051218e+002,3.961450e+002
3.060861e+002,3.965279e+002
3.070503e+002,3.946261e+002
3.080145e+002,3.931048e+002
3.089788e+002,3.930117e+002
3.099430e+002,3.937981e+002
3.109072e+002,3.943003e+002
3.118715e+002,3.934007e+002
3.128357e+002,3.934307e+002
3.137999e+002,3.950929e+002
3.147642e+002,3.974287e+002
3.157284e+002,3.990565e+002
3.166926e+002,3.985692e+002
3.176569e+002,3.975069e+002
3.186211e+002,3.973770e+002
3.195853e+002,3.982000e+002
3.205496e+002,3.996388e+002
3.215138e+002,4.010965e+002
3.224780e+002,4.025164e+002
3.234423e+002,4.031349e+002
3.244065e+002,4.023832e+002
3.253707e+002,4.007597e+002
3.263350e+002,4.000585e+002
3.272992e+002,4.024114e+002
3.282634e+002,4.044376e+002
3.292277e+002,4.051689e+002
3.301919e+002,4.048621e+002
3.311561e+002,4.047798e+002
3.321204e+002,4.060450e+002
3.330846e+002,4.075427e+002
3.340488e+002,4.091847e+002
3.350131e+002,4.106604e+002
3.359773e+002,4.114215e+002
3.369415e+002,4.097148e+002
3.379058e+002,4.065006e+002
3.388700e+002,4.048810e+002
3.398342e+002,4.058554e+002
3.407985e+002,4.089857e+002
3.417627e+002,4.111391e+002
3.427269e+002,4.112212e+002
3.436912e+002,4.104850e+002
3.446554e+002,4.088007e+002
3.456196e+002,4.065557e+002
3.465839e+002,4.052805e+002
3.475481e+002,4.064113e+002
3.485123e+002,4.081906e+002
3.494765e+002,4.102054e+002
3.504408e+002,4.119619e+002
3.514050e+002,4.128875e+002
3.523692e+002,4.117237e+002
3.533335e+002,4.101429e+002
3.542977e+002,4.098172e+002
3.552619e+002,4.112686e+002
3.562262e+002,4.141224e+002
3.571904e+002,4.161810e+002
3.581546e+002,4.170100e+002
3.591189e+002,4.172976e+002
3.600831e+002,4.164665e+002
3.610473e+002,4.145220e+002
3.620116e+002,4.141266e+002
3.629758e+002,4.181101e+002
3.639400e+002,4.216038e+002
3.649043e+002,4.229541e+002
3.658685e+002,4.221951e+002
3.668327e+002,4.213530e+002
3.677970e+002,4.232698e+002
3.687612e+002,4.252747e+002
3.697254e+002,4.256337e+002
3.706897e+002,4.240753e+002
3.716539e+002,4.215953e+002
3.726181e+002,4.202527e+002
3.735824e+002,4.195584e+002
3.745466e+002,4.195406e+002
3.755108e+002,4.205670e+002
3.764751e+002,4.226620e+002
3.774393e+002,4.240700e+002
3.784035e+002,4.236616e+002
3.793678e+002,4.234247e+002
3.803320e+002,4.243024e+002
3.812962e+002,4.261620e+002
3.822605e+002,4.273235e+002
3.832247e+002,4.257690e+002
3.841889e+002,4.242397e+002
3.851532e+002,4.236293e+002
3.861174e+002,4.239112e+002
3.870816e+002,4.242695e+002
3.880459e+002,4.231673e+002
3.890101e+002,4.218061e+002
3.899743e+002,4.219258e+002
3.909386e+002,4.239082e+002
3.919028e+002,4.271079e+002
3.928670e+002,4.289920e+002
3.938313e+002,4.287283e+002
3.947955e+002,4.278639e+002
3.957597e+002,4.262454e+002
3.967240e+002,4.242709e+002
3.976882e+002,4.234257e+002
3.986524e+002,4.252029e+002
3.996167e+002,4.273733e+002
4.005809e+002,4.298747e+002
4.015451e+002,4.320631e+002
4.025094e+002,4.329015e+002
4.034736e+002,4.309446e+002
4.044378e+002,4.289740e+002
4.054021e+002,4.286841e+002
4.063663e+002,4.296833e+002
4.073305e+002,4.306171e+002
4.082948e+002,4.291492e+002
4.092590e+002,4.255882e+002
4.102232e+002,4.239167e+002
4.111875e+002,4.246537e+002
4.121517e+002,4.268887e+002
4.131159e+002,4.285832e+002
4.140802e+002,4.304078e+002
4.150444e+002,4.324214e+002
4.160086e+002,4.344784e+002
4.169729e+002,4.364008e+002
4.179371e+002,4.377403e+002
4.189013e+002,4.367787e+002
4.198656e+002,4.356334e+002
4.208298e+002,4.363175e+002
4.217940e+002,4.380973e+002
4.227583e+002,4.399407e+002
4.237225e+002,4.410761e+002
4.246867e+002,4.420116e+002
4.256510e+002,4.423853e+002
4.266152e+002,4.420068e+002
4.275794e+002,4.416310e+002
4.285437e+002,4.424599e+002
4.295079e+002,4.453587e+002
4.304721e+002,4.465142e+002
4.314364e+002,4.450667e+002
4.324006e+002,4.433594e+002
4.333648e+002,4.437289e+002
4.343291e+002,4.471690e+002
4.352933e+002,4.488889e+002
4.362575e+002,4.471272e+002
4.372218e+002,4.444499e+002
4.381860e+002,4.428859e+002
4.391502e+002,4.435315e+002
4.401145e+002,4.451862e+002
4.410787e+002,4.468326e+002
4.420429e+002,4.486426e+002
4.430072e+002,4.504250e+002
4.439714e+002,4.518777e+002
4.449356e+002,4.526254e+002
4.458999e+002,4.528081e+002
4.468641e+002,4.525686e+002
4.478283e+002,4.526197e+002
4.487926e+002,4.540046e+002
4.497568e+002,4.573727e+002
4.507210e+002,4.595904e+002
4.516853e+002,4.583066e+002
4.526495e+002,4.563346e+002
4.536137e+002,4.550009e+002
4.545780e+002,4.546183e+002
4.555422e+002,4.541614e+002
4.565064e+002,4.517264e+002
4.574707e+002,4.501407e+002
4.584349e+002,4.515956e+002
4.593991e+002,4.558446e+002
4.603634e+002,4.605587e+002
4.613276e+002,4.607849e+002
4.622918e+002,4.574364e+002
4.632561e+002,4.544785e+002
4.642203e+002,4.526655e+002
4.651845e+002,4.518664e+002
4.661488e+002,4.515722e+002
4.671130e+002,4.518539e+002
4.680772e+002,4.518427e+002
4.690415e+002,4.519393e+002
4.700057e+002,4.521208e+002
4.709699e+002,4.521343e+002
4.719342e+002,4.517639e+002
4.728984e+002,4.508130e+002
4.738626e+002,4.487097e+002
4.748269e+002,4.460350e+002
4.757911e+002,4.436657e+002
4.767553e+002,4.424951e+002
4.777196e+002,4.427662e+002
4.786838e+002,4.438781e+002
4.796480e+002,4.452814e+002
4.806123e+002,4.460551e+002
4.815765e+002,4.454348e+002
4.825407e+002,4.434779e+002
4.835050e+002,4.423102e+002
4.844692e+002,4.428464e+002
4.854334e+002,4.432953e+002
4.863977e+002,4.415715e+002
4.873619e+002,4.363123e+002
4.883261e+002,4.320237e+002
4.892904e+002,4.325771e+002
4.902546e+002,4.346010e+002
4.912188e+002,4.361179e+002
4.921831e+002,4.361306e+002
4.931473e+002,4.349112e+002
4.941115e+002,4.324791e+002
4.950758e+002,4.296772e+002
4.960400e+002,4.273918e+002
4.970042e+002,4.260656e+002
4.979685e+002,4.257143e+002
4.989327e+002,4.257936e+002
4.998969e+002,4.255227e+002
5.008612e+002,4.254789e+002
5.018254e+002,4.257745e+002
5.027896e+002,4.262962e+002
5.037539e+002,4.268533e+002
5.047181e+002,4.286603e+002
5.056823e+002,4.302466e+002
5.066466e+002,4.314289e+002
5.076108e+002,4.320583e+002
5.085750e+002,4.316010e+002
5.095393e+002,4.287430e+002
5.105035e+002,4.256005e+002
5.114677e+002,4.258686e+002
5.124320e+002,4.287202e+002
5.133962e+002,4.319701e+002
5.143605e+002,4.332894e+002
5.153247e+002,4.322483e+002
5.162889e+002,4.326260e+002
5.172532e+002,4.350019e+002
5.182174e+002,4.382361e+002
5.191816e+002,4.414004e+002
5.201459e+002,4.441787e+002
5.211101e+002,4.475167e+002
5.220743e+002,4.516801e+002
5.230386e+002,4.556426e+002
5.240028e+002,4.595533e+002
5.249670e+002,4.637824e+002
5.259313e+002,4.685747e+002
5.268955e+002,4.729123e+002
5.278597e+002,4.766568e+002
5.288240e+002,4.799144e+002
5.297882e+002,4.829606e+002
5.307524e+002,4.862788e+002
5.317167e+002,4.908487e+002
5.326809e+002,4.975923e+002
5.336451e+002,5.051609e+002
5.346094e+002,5.130146e+002
5.355736e+002,5.202236e+002
5.365378e+002,5.257659e+002
5.375021e+002,5.296472e+002
5.384663e+002,5.340875e+002
5.394305e+002,5.394713e+002
5.403948e+002,5.450336e+002
5.413590e+002,5.497537e+002
5.423232e+002,5.527245e+002
5.432875e+002,5.551415e+002
5.442517e+002,5.597825e+002
5.452159e+002,5.656530e+002
5.461802e+002,5.711781e+002
5.471444e+002,5.750188e+002
5.481086e+002,5.766028e+002
5.490729e+002,5.756140e+002
5.500371e+002,5.734958e+002
5.510013e+002,5.729006e+002
5.519656e+002,5.753401e+002
5.529298e+002,5.802714e+002
5.538940e+002,5.837400e+002
5.548583e+002,5.821879e+002
5.558225e+002,5.808514e+002
5.567867e+002,5.816189e+002
5.577510e+002,5.834458e+002
5.587152e+002,5.839039e+002
5.596794e+002,5.816289e+002
5.606437e+002,5.789468e+002
5.616079e+002,5.767561e+002
5.625721e+002,5.747382e+002
5.635364e+002,5.722570e+002
5.645006e+002,5.687393e+002
5.654648e+002,5.643252e+002
5.664291e+002,5.616924e+002
5.673933e+002,5.617336e+002
5.683575e+002,5.620225e+002
5.693218e+002,5.598358e+002
5.702860e+002,5.537402e+002
5.712502e+002,5.486676e+002
5.722145e+002,5.462163e+002
5.731787e+002,5.433080e+002
5.741429e+002,5.395553e+002
5.751072e+002,5.353961e+002
5.760714e+002,5.315980e+002
5.770356e+002,5.281515e+002
5.779999e+002,5.256587e+002
5.789641e+002,5.241327e+002
5.799283e+002,5.229358e+002
5.808926e+002,5.212541e+002
5.818568e+002,5.183911e+002
5.828210e+002,5.143527e+002
5.837853e+002,5.103935e+002
5.847495e+002,5.068142e+002
5.857137e+002,5.037327e+002
5.866780e+002,5.013308e+002
5.876422e+002,4.999912e+002
5.886064e+002,4.975018e+002
5.895707e+002,4.935368e+002
5.905349e+002,4.893735e+002
5.914991e+002,4.850685e+002
5.924634e+002,4.805286e+002
5.934276e+002,4.763649e+002
5.943918e+002,4.741781e+002
5.953560e+002,4.722988e+002
5.963203e+002,4.699072e+002
5.972845e+002,4.666960e+002
5.982487e+002,4.625775e+002
5.992130e+002,4.574974e+002
6.001772e+002,4.525750e+002
6.011414e+002,4.497520e+002
6.021057e+002,4.483395e+002
6.030699e+002,4.467453e+002
6.040341e+002,4.435615e+002
6.049984e+002,4.388254e+002
6.059626e+002,4.340702e+002
6.069268e+002,4.308883e+002
6.078911e+002,4.278138e+002
6.088553e+002,4.229950e+002
6.098195e+002,4.157621e+002
6.107838e+002,4.086367e+002
6.117480e+002,4.046222e+002
6.127122e+002,4.015680e+002
6.136765e+002,3.978358e+002
6.146407e+002,3.932032e+002
6.156049e+002,3.886152e+002
6.165692e+002,3.859622e+002
6.175334e+002,3.851478e+002
6.184976e+002,3.831147e+002
6.194619e+002,3.799817e+002
6.204261e+002,3.761294e+002
6.213903e+002,3.714737e+002
6.223546e+002,3.645522e+002
6.233188e+002,3.598907e+002
6.242830e+002,3.588421e+002
6.252473e+002,3.578755e+002
6.262115e+002,3.551343e+002
6.271757e+002,3.504572e+002
6.281400e+002,3.452429e+002
6.291042e+002,3.392318e+002
6.300684e+002,3.340097e+002
6.310327e+002,3.305403e+002
6.319969e+002,3.288788e+002
6.329611e+002,3.287017e+002
6.339254e+002,3.298677e+002
6.348896e+002,3.315256e+002
6.358538e+002,3.295010e+002
6.368181e+002,3.234410e+002
6.377823e+002,3.161493e+002
6.387465e+002,3.102926e+002
6.397108e+002,3.057253e+002
6.406750e+002,3.036675e+002
6.416392e+002,3.059024e+002
6.426035e+002,3.073332e+002
6.435677e+002,3.052290e+002
6.445319e+002,2.997321e+002
6.454962e+002,2.939940e+002
6.464604e+002,2.900176e+002
6.474246e+002,2.871243e+002
6.483889e+002,2.849895e+002
6.493531e+002,2.831465e+002
6.503173e+002,2.811141e+002
6.512816e+002,2.785619e+002
6.522458e+002,2.756156e+002
6.532100e+002,2.720567e+002
6.541743e+002,2.680358e+002
6.551385e+002,2.640086e+002
6.561027e+002,2.598252e+002
6.570670e+002,2.550153e+002
6.580312e+002,2.516581e+002
6.589954e+002,2.509540e+002
6.599597e+002,2.497324e+002
6.609239e+002,2.471044e+002
6.618881e+002,2.435509e+002
6.628524e+002,2.403598e+002
6.638166e+002,2.383913e+002
6.647808e+002,2.369890e+002
6.657451e+002,2.352369e+002
6.667093e+002,2.330296e+002
6.676735e+002,2.305620e+002
6.686378e+002,2.281268e+002
6.696020e+002,2.257638e+002
6.705662e+002,2.235020e+002
6.715305e+002,2.212811e+002
6.724947e+002,2.190750e+002
6.734589e+002,2.176392e+002
6.744232e+002,2.170813e+002
6.753874e+002,2.152620e+002
6.763516e+002,2.092534e+002
6.773159e+002,2.042479e+002
6.782801e+002,2.018427e+002
6.792443e+002,2.006836e+002
6.802086e+002,1.983205e+002
6.811728e+002,1.929325e+002
6.821370e+002,1.869510e+002
6.831013e+002,1.841418e+002
6.840655e+002,1.837075e+002
6.850297e+002,1.841851e+002
6.859940e+002,1.845446e+002
6.869582e+002,1.844416e+002
6.879224e+002,1.825213e+002
6.888867e+002,1.775343e+002
6.898509e+002,1.730680e+002
6.908151e+002,1.701041e+002
6.917794e+002,1.684326e+002
6.927436e+002,1.673411e+002
6.937078e+002,1.670286e+002
6.946721e+002,1.662527e+002
6.956363e+002,1.645595e+002
6.966005e+002,1.626597e+002
6.975648e+002,1.610469e+002
6.985290e+002,1.597165e+002
6.994932e+002,1.579993e+002
7.004575e+002,1.550971e+002
7.014217e+002,1.516387e+002
7.023859e+002,1.480528e+002
7.033502e+002,1.445719e+002
7.043144e+002,1.417684e+002
7.052786e+002,1.407033e+002
7.062429e+002,1.423163e+002
7.072071e+002,1.427976e+002
7.081713e+002,1.424147e+002
7.091356e+002,1.414226e+002
7.100998e+002,1.396179e+002
7.110640e+002,1.366706e+002
7.120283e+002,1.336771e+002
7.129925e+002,1.309327e+002
7.139567e+002,1.286830e+002
7.149210e+002,1.275561e+002
7.158852e+002,1.272580e+002
7.168494e+002,1.266620e+002
7.178137e+002,1.241819e+002
7.187779e+002,1.206901e+002
7.197421e+002,1.200334e+002
7.207064e+002,1.222497e+002
7.216706e+002,1.248231e+002
7.226348e+002,1.255629e+002
7.235991e+002,1.243543e+002
7.245633e+002,1.233743e+002
7.255275e+002,1.221872e+002
7.264918e+002,1.206585e+002
7.274560e+002,1.184766e+002
7.284202e+002,1.163276e+002
7.293845e+002,1.157999e+002
7.303487e+002,1.188790e+002
7.313129e+002,1.213898e+002
7.322772e+002,1.194258e+002
7.332414e+002,1.149456e+002
7.342056e+002,1.108184e+002
7.351699e+002,1.090125e+002
7.361341e+002,1.093442e+002
7.370983e+002,1.107272e+002
7.380626e+002,1.127651e+002
7.390268e+002,1.143410e+002
7.399910e+002,1.154028e+002
7.409553e+002,1.163365e+002
7.419195e+002,1.176450e+002
7.428837e+002,1.196537e+002
7.438480e+002,1.199684e+002
7.448122e+002,1.173722e+002
7.457764e+002,1.147454e+002
7.467407e+002,1.145087e+002
7.477049e+002,1.172890e+002
7.486691e+002,1.212403e+002
7.496334e+002,1.239782e+002
7.505976e+002,1.256501e+002
7.515618e+002,1.273562e+002
7.525261e+002,1.292131e+002
7.534903e+002,1.301995e+002
7.544545e+002,1.287382e+002
7.554188e+002,1.243555e+002
7.563830e+002,1.222229e+002
7.573472e+002,1.223352e+002
7.583115e+002,1.226888e+002
7.592757e+002,1.225792e+002
7.602399e+002,1.224408e+002
7.612042e+002,1.231554e+002
7.621684e+002,1.246600e+002
7.631326e+002,1.263037e+002
7.640969e+002,1.278591e+002
7.650611e+002,1.295479e+002
7.660253e+002,1.322791e+002
7.669896e+002,1.369433e+002
7.679538e+002,1.424207e+002
7.689180e+002,1.432897e+002
7.698823e+002,1.398917e+002
7.708465e+002,1.367396e+002
7.718107e+002,1.363394e+002
7.727750e+002,1.383139e+002
7.737392e+002,1.397290e+002
7.747034e+002,1.396469e+002
7.756677e+002,1.404790e+002
7.766319e+002,1.427936e+002
7.775961e+002,1.452263e+002
7.785604e+002,1.465021e+002
7.795246e+002,1.463133e+002
7.804888e+002,1.458397e+002
7.814531e+002,1.463864e+002
7.824173e+002,1.469120e+002
7.833815e+002,1.465947e+002
7.843458e+002,1.456301e+002
7.853100e+002,1.447873e+002
7.862742e+002,1.448113e+002
7.872385e+002,1.453601e+002
7.882027e+002,1.454931e+002
7.891669e+002,1.453397e+002
7.901312e+002,1.444194e+002
7.910954e+002,1.427205e+002
7.920596e+002,1.407166e+002
7.930239e+002,1.390955e+002
7.939881e+002,1.374418e+002
7.949523e+002,1.362192e+002
7.959166e+002,1.354602e+002
7.968808e+002,1.350148e+002
7.978450e+002,1.348850e+002
7.988093e+002,1.351133e+002
7.997735e+002,1.353484e+002
8.007377e+002,1.347171e+002
8.017020e+002,1.336202e+002
8.026662e+002,1.326833e+002
8.036304e+002,1.320600e+002
8.045947e+002,1.315540e+002
8.055589e+002,1.308510e+002
8.065231e+002,1.300399e+002
8.074874e+002,1.285057e+002
8.084516e+002,1.256405e+002
8.094158e+002,1.228017e+002
8.103801e+002,1.216487e+002
8.113443e+002,1.222807e+002
8.123085e+002,1.221799e+002
8.132728e+002,1.180894e+002
8.142370e+002,1.134761e+002
8.152012e+002,1.101280e+002
8.161655e+002,1.077696e+002
8.171297e+002,1.064388e+002
8.180939e+002,1.064782e+002
8.190582e+002,1.078481e+002
8.200224e+002,1.075607e+002
8.209866e+002,1.051989e+002
8.219509e+002,1.025619e+002
8.229151e+002,9.950705e+001
8.238793e+002,9.636742e+001
8.248436e+002,9.422192e+001
8.258078e+002,9.378777e+001
8.267720e+002,9.306834e+001
8.277363e+002,9.128158e+001
8.287005e+002,8.913098e+001
8.296647e+002,8.752310e+001
8.306290e+002,8.659502e+001
8.315932e+002,8.541253e+001
8.325574e+002,8.246343e+001
8.335217e+002,7.905290e+001
8.344859e+002,7.785043e+001
8.354501e+002,7.833985e+001
8.364144e+002,7.817667e+001
8.373786e+002,7.541216e+001
8.383428e+002,7.036267e+001
8.393071e+002,6.710010e+001
8.402713e+002,6.662445e+001
8.412355e+002,6.671629e+001
8.421998e+002,6.716341e+001
8.431640e+002,6.783153e+001
8.441282e+002,6.886433e+001
8.450925e+002,7.061000e+001
8.460567e+002,7.140718e+001
8.470209e+002,6.933388e+001
8.479852e+002,6.637885e+001
8.489494e+002,6.402067e+001
8.499136e+002,6.265595e+001
8.508779e+002,6.185934e+001
8.518421e+002,6.094370e+001
8.528063e+002,5.991611e+001
8.537706e+002,6.027420e+001
8.547348e+002,6.268002e+001
8.556990e+002,6.475201e+001
8.566633e+002,6.465945e+001
8.576275e+002,6.257928e+001
8.585917e+002,6.093671e+001
8.595560e+002,6.057429e+001
8.605202e+002,6.044775e+001
8.614844e+002,6.042785e+001
8.624487e+002,6.059885e+001
8.634129e+002,6.089246e+001
8.643771e+002,6.105917e+001
8.653414e+002,6.079002e+001
8.663056e+002,6.022135e+001
8.672698e+002,5.998038e+001
8.682341e+002,5.991781e+001
8.691983e+002,5.967268e+001
8.701625e+002,5.943876e+001
8.711268e+002,5.956110e+001
8.720910e+002,5.989619e+001
8.730552e+002,6.008376e+001
8.740195e+002,6.202901e+001
8.749837e+002,6.390186e+001
8.759479e+002,6.460485e+001
8.769122e+002,6.424490e+001
8.778764e+002,6.328612e+001
8.788406e+002,6.158575e+001
8.798049e+002,5.970338e+001
8.807691e+002,5.917683e+001
8.817333e+002,5.922003e+001
8.826976e+002,5.831480e+001
8.836618e+002,5.623859e+001
8.846260e+002,5.444022e+001
8.855903e+002,5.542266e+001
8.865545e+002,5.970026e+001
8.875187e+002,6.100122e+001
8.884830e+002,5.759350e+001
8.894472e+002,5.397574e+001
8.904114e+002,5.248127e+001
8.913757e+002,5.299356e+001
8.923399e+002,5.457714e+001
8.933041e+002,5.768756e+001
8.942684e+002,5.992950e+001
8.952326e+002,6.012676e+001
8.961968e+002,5.960355e+001
8.971611e+002,6.007484e+001
8.981253e+002,6.216679e+001
8.990895e+002,6.473540e+001
9.000538e+002,6.552753e+001
9.010180e+002,6.477430e+001
9.019822e+002,6.530286e+001
9.029465e+002,6.764848e+001
9.039107e+002,7.019674e+001
9.048749e+002,7.122954e+001
9.058392e+002,7.051905e+001
9.068034e+002,6.994270e+001
9.077676e+002,6.924599e+001
9.087319e+002,6.942995e+001
9.096961e+002,7.166260e+001
9.106603e+002,7.481467e+001
9.116246e+002,7.705530e+001
9.125888e+002,7.747115e+001
9.135530e+002,7.750632e+001
9.145173e+002,7.916190e+001
9.154815e+002,8.139297e+001
9.164457e+002,8.355470e+001
9.174100e+002,8.580255e+001
9.183742e+002,8.793807e+001
9.193384e+002,8.939464e+001
9.203027e+002,8.994647e+001
9.212669e+002,9.159540e+001
9.222311e+002,9.383667e+001
9.231954e+002,9.591887e+001
9.241596e+002,9.851827e+001
9.251238e+002,1.015353e+002
9.260881e+002,1.043239e+002
9.270523e+002,1.065219e+002
9.280165e+002,1.084411e+002
9.289808e+002,1.095002e+002
9.299450e+002,1.111038e+002
9.309092e+002,1.151910e+002
9.318735e+002,1.212921e+002
9.328377e+002,1.267608e+002
9.338019e+002,1.286162e+002
9.347662e+002,1.268707e+002
9.357304e+002,1.262427e+002
9.366946e+002,1.273115e+002
9.376589e+002,1.291392e+002
9.386231e+002,1.312218e+002
9.395873e+002,1.332527e+002
9.405516e+002,1.351635e+002
9.415158e+002,1.372883e+002
9.424800e+002,1.393533e+002
9.434443e+002,1.415338e+002
9.444085e+002,1.435412e+002
9.453727e+002,1.450553e+002
9.463370e+002,1.460746e+002
9.473012e+002,1.467575e+002
9.482654e+002,1.471202e+002
9.492297e+002,1.468758e+002
9.501939e+002,1.460851e+002
9.511581e+002,1.453230e+002
9.521224e+002,1.455594e+002
9.530866e+002,1.472360e+002
9.540508e+002,1.497494e+002
9.550151e+002,1.520276e+002
9.559793e+002,1.541341e+002
9.569435e+002,1.545663e+002
9.579078e+002,1.536286e+002
9.588720e+002,1.526474e+002
9.598362e+002,1.513187e+002
9.608005e+002,1.500551e+002
9.617647e+002,1.504272e+002
9.627289e+002,1.540856e+002
9.636932e+002,1.585417e+002
9.646574e+002,1.580969e+002
9.656216e+002,1.539847e+002
9.665859e+002,1.502042e+002
9.675501e+002,1.484314e+002
9.685143e+002,1.486475e+002
9.694786e+002,1.506321e+002
9.704428e+002,1.553578e+002
9.714070e+002,1.596762e+002
9.723713e+002,1.620645e+002
9.733355e+002,1.639991e+002
9.742997e+002,1.665110e+002
9.752640e+002,1.699874e+002
9.762282e+002,1.744335e+002
9.771924e+002,1.796218e+002
9.781567e+002,1.844189e+002
9.791209e+002,1.876674e+002
9.800851e+002,1.901163e+002
9.810494e+002,1.926786e+002
9.820136e+002,1.957868e+002
9.829778e+002,1.994095e+002
9.839421e+002,2.032926e+002
9.849063e+002,2.072030e+002
9.858705e+002,2.086909e+002
9.868348e+002,2.070423e+002
9.877990e+002,2.063423e+002
9.887632e+002,2.080823e+002
9.897275e+002,2.110145e+002
9.906917e+002,2.129517e+002
9.916559e+002,2.127882e+002
9.926202e+002,2.110372e+002
9.935844e+002,2.083824e+002
9.945486e+002,2.058885e+002
9.955129e+002,2.042707e+002
9.964771e+002,2.036895e+002
9.974413e+002,2.036875e+002
9.984056e+002,2.035742e+002
9.993698e+002,2.032319e+002
1.000334e+003,2.048667e+002
1.001298e+003,2.115220e+002
1.002263e+003,2.149309e+002
1.003227e+003,2.110929e+002
1.004191e+003,2.052001e+002
1.005155e+003,2.033002e+002
1.006119e+003,2.061260e+002
1.007084e+003,2.096244e+002
1.008048e+003,2.124051e+002
1.009012e+003,2.156107e+002
1.009976e+003,2.200915e+002
1.010941e+003,2.247278e+002
1.011905e+003,2.276010e+002
1.012869e+003,2.277608e+002
1.013833e+003,2.263497e+002
1.014798e+003,2.262727e+002
1.015762e+003,2.286647e+002
1.016726e+003,2.313920e+002
1.017690e+003,2.343114e+002
1.018654e+003,2.374384e+002
1.019619e+003,2.402171e+002
1.020583e+003,2.426710e+002
1.021547e+003,2.464514e+002
1.022511e+003,2.530067e+002
1.023476e+003,2.586350e+002
1.024440e+003,2.622350e+002
1.025404e+003,2.647418e+002
1.026368e+003,2.664821e+002
1.027333e+003,2.678694e+002
1.028297e+003,2.699116e+002
1.029261e+003,2.738453e+002
1.030225e+003,2.790006e+002
1.031190e+003,2.816892e+002
1.032154e+003,2.819849e+002
1.033118e+003,2.840485e+002
1.034082e+003,2.900982e+002
1.035047e+003,2.983724e+002
1.036011e+003,3.055291e+002
1.036975e+003,3.112803e+002
1.037939e+003,3.153488e+002
1.038903e+003,3.173793e+002
1.039868e+003,3.195735e+002
1.040832e+003,3.224123e+002
1.041796e+003,3.258589e+002
1.042760e+003,3.299317e+002
1.043725e+003,3.346892e+002
1.044689e+003,3.394930e+002
1.045653e+003,3.427176e+002
1.046617e+003,3.444666e+002
1.047582e+003,3.477743e+002
1.048546e+003,3.547717e+002
1.049510e+003,3.625535e+002
1.050474e+003,3.669630e+002
1.051438e+003,3.677200e+002
1.052403e+003,3.711172e+002
1.053367e+003,3.807579e+002
1.054331e+003,3.890443e+002
1.055295e+003,3.930242e+002
1.056260e+003,3.955778e+002
1.057224e+003,3.997931e+002
1.058188e+003,4.063430e+002
1.059152e+003,4.133654e+002
1.060117e+003,4.186839e+002
1.061081e+003,4.227446e+002
1.062045e+003,4.281385e+002
1.063009e+003,4.343522e+002
1.063974e+003,4.398518e+002
1.064938e+003,4.441721e+002
1.065902e+003,4.484980e+002
1.066866e+003,4.547205e+002
1.067830e+003,4.631201e+002
1.068795e+003,4.698471e+002
1.069759e+003,4.738396e+002
1.070723e+003,4.771041e+002
1.071687e+003,4.801613e+002
1.072652e+003,4.838187e+002
1.073616e+003,4.886619e+002
1.074580e+003,4.945559e+002
1.075544e+003,5.006355e+002
1.076509e+003,5.064247e+002
1.077473e+003,5.121218e+002
1.078437e+003,5.174113e+002
1.079401e+003,5.223709e+002
1.080365e+003,5.272100e+002
1.081330e+003,5.315659e+002
1.082294e+003,5.354363e+002
1.083258e+003,5.399470e+002
1.084222e+003,5.459385e+002
1.085187e+003,5.514414e+002
1.086151e+003,5.569191e+002
1.087115e+003,5.613263e+002
1.088079e+003,5.634700e+002
1.089043e+003,5.635673e+002
1.090008e+003,5.625223e+002
1.090972e+003,5.609138e+002
1.091936e+003,5.594276e+002
1.092900e+003,5.604028e+002
1.093865e+003,5.633739e+002
1.094829e+003,5.653992e+002
1.095793e+003,5.659005e+002
1.096757e+003,5.660022e+002
1.097722e+003,5.669774e+002
1.098686e+003,5.683525e+002
1.099650e+003,5.668999e+002
1.100614e+003,5.611865e+002
1.101578e+003,5.558696e+002
1.102543e+003,5.520840e+002
1.103507e+003,5.489042e+002
1.104471e+003,5.451575e+002
1.105435e+003,5.401974e+002
1.106400e+003,5.341586e+002
1.107364e+003,5.277727e+002
1.108328e+003,5.217207e+002
1.109292e+003,5.161071e+002
1.110257e+003,5.110807e+002
1.111221e+003,5.073310e+002
1.112185e+003,5.055793e+002
1.113149e+003,5.032668e+002
1.114114e+003,4.968748e+002
1.115078e+003,4.863094e+002
1.116042e+003,4.766432e+002
1.117006e+003,4.698802e+002
1.117970e+003,4.636629e+002
1.118935e+003,4.567149e+002
1.119899e+003,4.492877e+002
1.120863e+003,4.423271e+002
1.121827e+003,4.362885e+002
1.122792e+003,4.305374e+002
1.123756e+003,4.237700e+002
1.124720e+003,4.156339e+002
1.125684e+003,4.091057e+002
1.126649e+003,4.059189e+002
1.127613e+003,4.009468e+002
1.128577e+003,3.898290e+002
1.129541e+003,3.766546e+002
1.130505e+003,3.685256e+002
1.131470e+003,3.662440e+002
1.132434e+003,3.629514e+002
1.133398e+003,3.562168e+002
1.134362e+003,3.491133e+002
1.135327e+003,3.421359e+002
1.136291e+003,3.355210e+002
1.137255e+003,3.297388e+002
1.138219e+003,3.249813e+002
1.139184e+003,3.209171e+002
1.140148e+003,3.169671e+002
1.141112e+003,3.126257e+002
1.142076e+003,3.069949e+002
1.143041e+003,3.003823e+002
1.144005e+003,2.943114e+002
1.144969e+003,2.894434e+002
1.145933e+003,2.852779e+002
1.146897e+003,2.811667e+002
1.147862e+003,2.768040e+002
1.148826e+003,2.714611e+002
1.149790e+003,2.639913e+002
1.150754e+003,2.570951e+002
1.151719e+003,2.531220e+002
1.152683e+003,2.505602e+002
1.153647e+003,2.465392e+002
1.154611e+003,2.402558e+002
1.155576e+003,2.339595e+002
1.156540e+003,2.308374e+002
1.157504e+003,2.305824e+002
1.158468e+003,2.274484e+002
1.159432e+003,2.202492e+002
1.160397e+003,2.138620e+002
1.161361e+003,2.106975e+002
1.162325e+003,2.086194e+002
1.163289e+003,2.042247e+002
1.164254e+003,1.969951e+002
1.165218e+003,1.905373e+002
1.166182e+003,1.872001e+002
1.167146e+003,1.852394e+002
1.168111e+003,1.835509e+002
1.169075e+003,1.814719e+002
1.170039e+003,1.778136e+002
1.171003e+003,1.723531e+002
1.171968e+003,1.663343e+002
1.172932e+003,1.614567e+002
1.173896e+003,1.578873e+002
1.174860e+003,1.552918e+002
1.175824e+003,1.547141e+002
1.176789e+003,1.528959e+002
1.177753e+003,1.484550e+002
1.178717e+003,1.437559e+002
1.179681e+003,1.411935e+002
1.180646e+003,1.405219e+002
1.181610e+003,1.392489e+002
1.182574e+003,1.359975e+002
1.183538e+003,1.317962e+002
1.184503e+003,1.278456e+002
1.185467e+003,1.240995e+002
1.186431e+003,1.203463e+002
1.187395e+003,1.163728e+002
1.188359e+003,1.123595e+002
1.189324e+003,1.088552e+002
1.190288e+003,1.061274e+002
1.191252e+003,1.036074e+002
1.192216e+003,1.008632e+002
1.193181e+003,9.857706e+001
1.194145e+003,9.671436e+001
1.195109e+003,9.473883e+001
1.196073e+003,9.291541e+001
1.197038e+003,9.121459e+001
1.198002e+003,8.902756e+001
1.198966e+003,8.591534e+001
1.199930e+003,8.260293e+001
1.200895e+003,8.019859e+001
1.201859e+003,7.862615e+001
1.202823e+003,7.762639e+001
1.203787e+003,7.726066e+001
1.204751e+003,7.623049e+001
1.205716e+003,7.356591e+001
1.206680e+003,6.972310e+001
1.207644e+003,6.551072e+001
1.208608e+003,6.024162e+001
1.209573e+003,5.677048e+001
1.210537e+003,5.836923e+001
1.211501e+003,6.008339e+001
1.212465e+003,5.990977e+001
1.213430e+003,5.842494e+001
1.214394e+003,5.581638e+001
1.215358e+003,5.223435e+001
1.216322e+003,4.909673e+001
1.217286e+003,4.897903e+001
1.218251e+003,5.160652e+001
1.219215e+003,5.034057e+001
1.220179e+003,4.423805e+001
1.221143e+003,4.015922e+001
1.222108e+003,4.086436e+001
1.223072e+003,4.347307e+001
1.224036e+003,4.478398e+001
1.225000e+003,4.450576e+001
1.225965e+003,4.418701e+001
1.226929e+003,4.501230e+001
1.227893e+003,4.405473e+001
1.228857e+003,3.834386e+001
1.229822e+003,3.257178e+001
1.230786e+003,3.166582e+001
1.231750e+003,3.530393e+001
1.232714e+003,3.940260e+001
1.233678e+003,4.067693e+001
1.234643e+003,3.945331e+001
1.235607e+003,3.725502e+001
1.236571e+003,3.390761e+001
1.237535e+003,3.152614e+001
1.238500e+003,2.943988e+001
1.239464e+003,2.830497e+001
1.240428e+003,2.868061e+001
1.241392e+003,2.975833e+001
1.242357e+003,3.091007e+001
1.243321e+003,3.222972e+001
1.244285e+003,3.291544e+001
1.245249e+003,3.168624e+001
1.246214e+003,2.967188e+001
1.247178e+003,2.826206e+001
1.248142e+003,2.717730e+001
1.249106e+003,2.697383e+001
1.250070e+003,2.836891e+001
1.251035e+003,3.012049e+001
1.251999e+003,3.020477e+001
1.252963e+003,2.851609e+001
1.253927e+003,2.630054e+001
1.254892e+003,2.211149e+001
1.255856e+003,2.023869e+001
1.256820e+003,2.309185e+001
1.257784e+003,2.681792e+001
1.258749e+003,2.870512e+001
1.259713e+003,2.868673e+001
1.260677e+003,2.794707e+001
1.261641e+003,2.717287e+001
1.262605e+003,2.614072e+001
1.263570e+003,2.432078e+001
1.264534e+003,2.184214e+001
1.265498e+003,2.106931e+001
1.266462e+003,2.262385e+001
1.267427e+003,2.465861e+001
1.268391e+003,2.687702e+001
1.269355e+003,2.828329e+001
1.270319e+003,2.743673e+001
1.271284e+003,2.442838e+001
1.272248e+003,2.103993e+001
1.273212e+003,1.693341e+001
1.274176e+003,1.509592e+001
1.275141e+003,1.812201e+001
1.276105e+003,2.236446e+001
1.277069e+003,2.317764e+001
1.278033e+003,2.024612e+001
1.278997e+003,1.733687e+001
1.279962e+003,1.808820e+001
1.280926e+003,2.206381e+001
1.281890e+003,2.501221e+001
1.282854e+003,2.494203e+001
1.283819e+003,2.435964e+001
1.284783e+003,2.366232e+001
1.285747e+003,2.299874e+001
1.286711e+003,2.301471e+001
1.287676e+003,2.344609e+001
1.288640e+003,2.341669e+001
1.289604e+003,2.251064e+001
1.290568e+003,2.113834e+001
1.291532e+003,1.950443e+001
1.292497e+003,1.795335e+001
1.293461e+003,1.760573e+001
1.294425e+003,1.843188e+001
1.295389e+003,1.923183e+001
1.296354e+003,1.955022e+001
1.297318e+003,1.940026e+001
1.298282e+003,1.881097e+001
1.299246e+003,1.773888e+001
1.300211e+003,1.604636e+001
1.301175e+003,1.325697e+001
1.302139e+003,1.228844e+001
1.303103e+003,1.504419e+001
1.304068e+003,1.781435e+001
1.305032e+003,1.858058e+001
1.305996e+003,1.791175e+001
1.306960e+003,1.705145e+001
1.307924e+003,1.673917e+001
1.308889e+003,1.712287e+001
1.309853e+003,1.804037e+001
1.310817e+003,1.875804e+001
1.311781e+003,1.831860e+001
1.312746e+003,1.750432e+001
1.313710e+003,1.731223e+001
1.314674e+003,1.784602e+001
1.315638e+003,1.840763e+001
1.316603e+003,1.804083e+001
1.317567e+003,1.667294e+001
1.318531e+003,1.532253e+001
1.319495e+003,1.498232e+001
1.320459e+003,1.528187e+001
1.321424e+003,1.448955e+001
1.322388e+003,1.356136e+001
1.323352e+003,1.540111e+001
1.324316e+003,1.951910e+001
1.325281e+003,2.252155e+001
1.326245e+003,2.285516e+001
1.327209e+003,2.175097e+001
1.328173e+003,2.074564e+001
1.329138e+003,1.983186e+001
1.330102e+003,1.885367e+001
1.331066e+003,1.772777e+001
1.332030e+003,1.754858e+001
1.332995e+003,1.869012e+001
1.333959e+003,1.982439e+001
1.334923e+003,2.028841e+001
1.335887e+003,1.998663e+001
1.336851e+003,1.897927e+001
1.337816e+003,1.758427e+001
1.338780e+003,1.636595e+001
1.339744e+003,1.562175e+001
1.340708e+003,1.502012e+001
1.341673e+003,1.566853e+001
1.342637e+003,1.898248e+001
1.343601e+003,2.064693e+001
1.344565e+003,1.971366e+001
1.345530e+003,1.815092e+001
1.346494e+003,1.676115e+001
1.347458e+003,1.576494e+001
1.348422e+003,1.565377e+001
1.349386e+003,1.639520e+001
1.350351e+003,1.701987e+001
1.351315e+003,1.707036e+001
1.352279e+003,1.716558e+001
1.353243e+003,1.827209e+001
1.354208e+003,2.009654e+001
1.355172e+003,2.095029e+001
1.356136e+003,1.978370e+001
1.357100e+003,1.789945e+001
1.358065e+003,1.693041e+001
1.359029e+003,1.700495e+001
1.359993e+003,1.798927e+001
1.360957e+003,2.077673e+001
1.361922e+003,2.266204e+001
1.362886e+003,2.242141e+001
1.363850e+003,2.160870e+001
1.364814e+003,1.970613e+001
1.365778e+003,1.784634e+001
1.366743e+003,1.868875e+001
1.367707e+003,2.232247e+001
1.368671e+003,2.495765e+001
1.369635e+003,2.279302e+001
1.370600e+003,1.746230e+001
1.371564e+003,1.486381e+001
1.372528e+003,1.566216e+001
1.373492e+003,1.653020e+001
1.374457e+003,1.710595e+001
1.375421e+003,1.771915e+001
1.376385e+003,1.928542e+001
1.377349e+003,2.101628e+001
1.378313e+003,2.140248e+001
1.379278e+003,2.024477e+001
1.380242e+003,1.890048e+001
1.381206e+003,1.838687e+001
1.382170e+003,1.832167e+001
1.383135e+003,1.764593e+001
1.384099e+003,1.669112e+001
1.385063e+003,1.630998e+001
1.386027e+003,1.609931e+001
1.386992e+003,1.599482e+001
1.387956e+003,1.662104e+001
1.388920e+003,1.803601e+001
1.389884e+003,2.026670e+001
1.390849e+003,2.345454e+001
1.391813e+003,2.471548e+001
1.392777e+003,2.110649e+001
1.393741e+003,1.762469e+001
1.394705e+003,1.868810e+001
1.395670e+003,2.124400e+001
1.396634e+003,2.203622e+001
1.397598e+003,2.060956e+001
1.398562e+003,1.790792e+001
1.399527e+003,1.483964e+001
1.400491e+003,1.247624e+001
1.401455e+003,1.223009e+001
1.402419e+003,1.411973e+001
1.403384e+003,1.593935e+001
1.404348e+003,1.769482e+001
1.405312e+003,1.777871e+001
1.406276e+003,1.585105e+001
1.407240e+003,1.493071e+001
1.408205e+003,1.610429e+001
1.409169e+003,1.823215e+001
1.410133e+003,2.018538e+001
1.411097e+003,2.151177e+001
1.412062e+003,2.187411e+001
1.413026e+003,2.129527e+001
1.413990e+003,2.058129e+001
1.414954e+003,2.032085e+001
1.415919e+003,2.006499e+001
1.416883e+003,1.995114e+001
1.417847e+003,1.959808e+001
1.418811e+003,1.927908e+001
1.419776e+003,1.958678e+001
1.420740e+003,2.009058e+001
1.421704e+003,1.978052e+001
1.422668e+003,1.880157e+001
1.423632e+003,1.905027e+001
1.424597e+003,2.176674e+001
1.425561e+003,2.445427e+001
1.426525e+003,2.380652e+001
1.427489e+003,2.195052e+001
1.428454e+003,2.211458e+001
1.429418e+003,2.428864e+001
1.430382e+003,2.565375e+001
1.431346e+003,2.426377e+001
1.432311e+003,2.131372e+001
1.433275e+003,1.895651e+001
1.434239e+003,1.786790e+001
1.435203e+003,1.838200e+001
1.436167e+003,2.072013e+001
1.437132e+003,2.221084e+001
1.438096e+003,2.086732e+001
1.439060e+003,1.912034e+001
1.440024e+003,1.898180e+001
1.440989e+003,2.012977e+001
1.441953e+003,2.140126e+001
1.442917e+003,2.206489e+001
1.443881e+003,2.187128e+001
1.444846e+003,2.087168e+001
1.445810e+003,1.977485e+001
1.446774e+003,2.018204e+001
1.447738e+003,2.298595e+001
1.448703e+003,2.304747e+001
1.449667e+003,1.767955e+001
1.450631e+003,1.363413e+001
1.451595e+003,1.375044e+001
1.452559e+003,1.551103e+001
1.453524e+003,1.658723e+001
1.454488e+003,1.676944e+001
1.455452e+003,1.675052e+001
1.456416e+003,1.682846e+001
1.457381e+003,1.700698e+001
1.458345e+003,1.736414e+001
1.459309e+003,1.779446e+001
1.460273e+003,1.863458e+001
1.461238e+003,2.096486e+001
1.462202e+003,2.248910e+001
1.463166e+003,2.212563e+001
1.464130e+003,2.157587e+001
1.465094e+003,2.130431e+001
1.466059e+003,2.084299e+001
1.467023e+003,2.022869e+001
1.467987e+003,1.973658e+001
1.468951e+003,1.883473e+001
1.469916e+003,1.707014e+001
1.470880e+003,1.626253e+001
1.471844e+003,1.855389e+001
1.472808e+003,2.195895e+001
1.473773e+003,2.365533e+001
1.474737e+003,2.387977e+001
1.475701e+003,2.342268e+001
1.476665e+003,2.204678e+001
1.477630e+003,2.113460e+001
1.478594e+003,2.244018e+001
1.479558e+003,2.508713e+001
1.480522e+003,2.640680e+001
1.481486e+003,2.618623e+001
1.482451e+003,2.552023e+001
1.483415e+003,2.416580e+001
1.484379e+003,2.328536e+001
1.485343e+003,2.421107e+001
1.486308e+003,2.625334e+001
1.487272e+003,2.802821e+001
1.488236e+003,2.917471e+001
1.489200e+003,3.017417e+001
1.490165e+003,3.134789e+001
1.491129e+003,3.226072e+001
1.492093e+003,3.220943e+001
1.493057e+003,3.134327e+001
1.494021e+003,3.065781e+001
1.494986e+003,3.010119e+001
1.495950e+003,3.033179e+001
1.496914e+003,3.142847e+001
1.497878e+003,3.267206e+001
1.498843e+003,3.405816e+001
1.499807e+003,3.534890e+001
1.500771e+003,3.581829e+001
1.501735e+003,3.545338e+001
1.502700e+003,3.551352e+001
1.503664e+003,3.713876e+001
1.504628e+003,3.959299e+001
1.505592e+003,4.099409e+001
1.506557e+003,4.136621e+001
1.507521e+003,4.235526e+001
1.508485e+003,4.474004e+001
1.509449e+003,4.598292e+001
1.510413e+003,4.513905e+001
1.511378e+003,4.315521e+001
1.512342e+003,4.036785e+001
1.513306e+003,3.753708e+001
1.514270e+003,3.547119e+001
1.515235e+003,3.439542e+001
1.516199e+003,3.437950e+001
1.517163e+003,3.572612e+001
1.518127e+003,3.777019e+001
1.519092e+003,3.779899e+001
1.520056e+003,3.484297e+001
1.521020e+003,3.270214e+001
1.521984e+003,3.120839e+001
1.522948e+003,3.057217e+001
1.523913e+003,3.249998e+001
1.524877e+003,3.457651e+001
1.525841e+003,3.347153e+001
1.526805e+003,3.044801e+001
1.527770e+003,2.947172e+001
1.528734e+003,3.147620e+001
1.529698e+003,3.346029e+001
1.530662e+003,3.319113e+001
1.531627e+003,3.159085e+001
1.532591e+003,3.025875e+001
1.533555e+003,2.920825e+001
1.534519e+003,2.909147e+001
1.535484e+003,3.108118e+001
1.536448e+003,3.243135e+001
1.537412e+003,3.156326e+001
1.538376e+003,2.966818e+001
1.539340e+003,2.831429e+001
1.540305e+003,2.740852e+001
1.541269e+003,2.515751e+001
1.542233e+003,2.080567e+001
1.543197e+003,1.759267e+001
1.544162e+003,1.858109e+001
1.545126e+003,2.158451e+001
1.546090e+003,2.316946e+001
1.547054e+003,2.421943e+001
1.548019e+003,2.419311e+001
1.548983e+003,2.078706e+001
1.549947e+003,1.893295e+001
1.550911e+003,2.398027e+001
1.551875e+003,2.975035e+001
1.552840e+003,2.820506e+001
1.553804e+003,2.174118e+001
1.554768e+003,1.828253e+001
1.555732e+003,1.919974e+001
1.556697e+003,2.128478e+001
1.557661e+003,2.357990e+001
1.558625e+003,2.529340e+001
1.559589e+003,2.503308e+001
1.560554e+003,2.334270e+001
1.561518e+003,2.089096e+001
1.562482e+003,1.748687e+001
1.563446e+003,1.523616e+001
1.564411e+003,1.593692e+001
1.565375e+003,1.810330e+001
1.566339e+003,2.030319e+001
1.567303e+003,2.224934e+001
1.568267e+003,2.305578e+001
1.569232e+003,2.251528e+001
1.570196e+003,2.121300e+001
1.571160e+003,1.870190e+001
1.572124e+003,1.658691e+001
1.573089e+003,1.741058e+001
1.574053e+003,1.994365e+001
1.575017e+003,2.205660e+001
1.575981e+003,2.328516e+001
1.576946e+003,2.309554e+001
1.577910e+003,2.037479e+001
1.578874e+003,1.714732e+001
1.579838e+003,1.635862e+001
1.580802e+003,1.793954e+001
1.581767e+003,1.992036e+001
1.582731e+003,2.163651e+001
1.583695e+003,2.323078e+001
1.584659e+003,2.543526e+001
1.585624e+003,2.625942e+001
1.586588e+003,2.332602e+001
1.587552e+003,1.993294e+001
1.588516e+003,1.916582e+001
1.589481e+003,2.059183e+001
1.590445e+003,2.232256e+001
1.591409e+003,2.359113e+001
1.592373e+003,2.434871e+001
1.593338e+003,2.500606e+001
1.594302e+003,2.544129e+001
1.595266e+003,2.468938e+001
1.596230e+003,2.280062e+001
1.597194e+003,2.123235e+001
1.598159e+003,1.972071e+001
1.599123e+003,1.911501e+001
1.600087e+003,2.130428e+001
1.601051e+003,2.365095e+001
1.602016e+003,2.301945e+001
1.602980e+003,2.061770e+001
1.603944e+003,1.999279e+001
1.604908e+003,2.215925e+001
1.605873e+003,2.432327e+001
1.606837e+003,2.435982e+001
1.607801e+003,2.350581e+001
1.608765e+003,2.338495e+001
1.609729e+003,2.345901e+001
1.610694e+003,2.317321e+001
1.611658e+003,2.276363e+001
1.612622e+003,2.245358e+001
1.613586e+003,2.261728e+001
1.614551e+003,2.338046e+001
1.615515e+003,2.456025e+001
1.616479e+003,2.537755e+001
1.617443e+003,2.493739e+001
1.618408e+003,2.355124e+001
1.619372e+003,2.284032e+001
1.620336e+003,2.377245e+001
1.621300e+003,2.529044e+001
1.622265e+003,2.618985e+001
1.623229e+003,2.647699e+001
1.624193e+003,2.627390e+001
1.625157e+003,2.545708e+001
1.626121e+003,2.509907e+001
1.627086e+003,2.581678e+001
1.628050e+003,2.647547e+001
1.629014e+003,2.595409e+001
1.629978e+003,2.496957e+001
1.630943e+003,2.459967e+001
1.631907e+003,2.452438e+001
1.632871e+003,2.386253e+001
1.633835e+003,2.264896e+001
1.634800e+003,2.144199e+001
1.635764e+003,2.034615e+001
1.636728e+003,1.983026e+001
1.637692e+003,2.025095e+001
1.638656e+003,2.116821e+001
1.639621e+003,2.232984e+001
1.640585e+003,2.375654e+001
1.641549e+003,2.519026e+001
1.642513e+003,2.787598e+001
1.643478e+003,2.999314e+001
1.644442e+003,2.821620e+001
1.645406e+003,2.491263e+001
1.646370e+003,2.307097e+001
1.647335e+003,2.267138e+001
1.648299e+003,2.302905e+001
1.649263e+003,2.406969e+001
1.650227e+003,2.571029e+001
1.651192e+003,2.925170e+001
1.652156e+003,3.268472e+001
1.653120e+003,3.123508e+001
1.654084e+003,2.569426e+001
1.655048e+003,2.246996e+001
1.656013e+003,2.310764e+001
1.656977e+003,2.438820e+001
1.657941e+003,2.436266e+001
1.658905e+003,2.362392e+001
1.659870e+003,2.365701e+001
1.660834e+003,2.439732e+001
1.661798e+003,2.467326e+001
1.662762e+003,2.408236e+001
1.663727e+003,2.358345e+001
1.664691e+003,2.344273e+001
1.665655e+003,2.377339e+001
1.666619e+003,2.535934e+001
1.667583e+003,2.745090e+001
1.668548e+003,2.810179e+001
1.669512e+003,2.708511e+001
1.670476e+003,2.573274e+001
1.671440e+003,2.479107e+001
1.672405e+003,2.489455e+001
1.673369e+003,2.656766e+001
1.674333e+003,2.857060e+001
1.675297e+003,2.834117e+001
1.676262e+003,2.634715e+001
1.677226e+003,2.568380e+001
1.678190e+003,2.690448e+001
1.679154e+003,2.838314e+001
1.680119e+003,3.007623e+001
1.681083e+003,3.114264e+001
1.682047e+003,3.052966e+001
1.683011e+003,2.921508e+001
1.683975e+003,2.923026e+001
1.684940e+003,3.063601e+001
1.685904e+003,3.124004e+001
1.686868e+003,2.994617e+001
1.687832e+003,2.887698e+001
1.688797e+003,2.997286e+001
1.689761e+003,3.222664e+001
1.690725e+003,3.422950e+001
1.691689e+003,3.645072e+001
1.692654e+003,3.698994e+001
1.693618e+003,3.475986e+001
1.694582e+003,3.361089e+001
1.695546e+003,3.450615e+001
1.696510e+003,3.517168e+001
1.697475e+003,3.398599e+001
1.698439e+003,3.242750e+001
1.699403e+003,3.267229e+001
1.700367e+003,3.482635e+001
1.701332e+003,3.781887e+001
1.702296e+003,4.097176e+001
1.703260e+003,4.318343e+001
1.704224e+003,4.295863e+001
1.705189e+003,4.083098e+001
1.706153e+003,3.997664e+001
1.707117e+003,4.061272e+001
1.708081e+003,4.063274e+001
1.709046e+003,4.157745e+001
1.710010e+003,4.276477e+001
1.710974e+003,4.328636e+001
1.711938e+003,4.295284e+001
1.712902e+003,4.078461e+001
1.713867e+003,3.801431e+001
1.714831e+003,3.694328e+001
1.715795e+003,3.798235e+001
1.716759e+003,3.991637e+001
1.717724e+003,4.182773e+001
1.718688e+003,4.325160e+001
1.719652e+003,4.352391e+001
1.720616e+003,4.283150e+001
1.721581e+003,4.282291e+001
1.722545e+003,4.387119e+001
1.723509e+003,4.456095e+001
1.724473e+003,4.467783e+001
1.725438e+003,4.514887e+001
1.726402e+003,4.614165e+001
1.727366e+003,4.692957e+001
1.728330e+003,4.778774e+001
1.729294e+003,4.825126e+001
1.730259e+003,4.705448e+001
1.731223e+003,4.473837e+001
1.732187e+003,4.373396e+001
1.733151e+003,4.491838e+001
1.734116e+003,4.623164e+001
1.735080e+003,4.588815e+001
1.736044e+003,4.492948e+001
1.737008e+003,4.510564e+001
1.737973e+003,4.601994e+001
1.738937e+003,4.605458e+001
1.739901e+003,4.489209e+001
1.740865e+003,4.380404e+001
1.741829e+003,4.338834e+001
1.742794e+003,4.336156e+001
1.743758e+003,4.385723e+001
1.744722e+003,4.443175e+001
1.745686e+003,4.390928e+001
1.746651e+003,4.244721e+001
1.747615e+003,4.198118e+001
1.748579e+003,4.302863e+001
1.749543e+003,4.441004e+001
1.750508e+003,4.634663e+001
1.751472e+003,4.796522e+001
1.752436e+003,4.767870e+001
1.753400e+003,4.594730e+001
1.754365e+003,4.445453e+001
1.755329e+003,4.347401e+001
1.756293e+003,4.169901e+001
1.757257e+003,3.846769e+001
1.758221e+003,3.651010e+001
1.759186e+003,3.905672e+001
1.760150e+003,4.425781e+001
1.761114e+003,4.609359e+001
1.762078e+003,4.333233e+001
1.763043e+003,4.157654e+001
1.764007e+003,4.171479e+001
1.764971e+003,4.096912e+001
1.765935e+003,3.892217e+001
1.766900e+003,3.778751e+001
1.767864e+003,3.848499e+001
1.768828e+003,4.036581e+001
1.769792e+003,4.363969e+001
1.770756e+003,4.726414e+001
1.771721e+003,4.852995e+001
1.772685e+003,4.648593e+001
1.773649e+003,4.333936e+001
1.774613e+003,4.137724e+001
1.775578e+003,4.071461e+001
1.776542e+003,4.081881e+001
1.777506e+003,4.150570e+001
1.778470e+003,4.131985e+001
1.779435e+003,3.937959e+001
1.780399e+003,3.840301e+001
1.781363e+003,4.062308e+001
1.782327e+003,4.233996e+001
1.783292e+003,4.088496e+001
1.784256e+003,3.835536e+001
1.785220e+003,3.710561e+001
1.786184e+003,3.678107e+001
1.787148e+003,3.551385e+001
1.788113e+003,3.300332e+001
1.789077e+003,3.118279e+001
1.790041e+003,3.110126e+001
1.791005e+003,3.171235e+001
1.791970e+003,3.272243e+001
1.792934e+003,3.394386e+001
1.793898e+003,3.399718e+001
1.794862e+003,3.308425e+001
1.795827e+003,3.346965e+001
1.796791e+003,3.552405e+001
1.797755e+003,3.694179e+001
1.798719e+003,3.655128e+001
1.799683e+003,3.586701e+001
1.800648e+003,3.637725e+001
1.801612e+003,3.738253e+001
1.802576e+003,3.736578e+001
1.803540e+003,3.620076e+001
1.804505e+003,3.496920e+001
1.805469e+003,3.476522e+001
1.806433e+003,3.499263e+001
1.807397e+003,3.527002e+001
1.808362e+003,3.487016e+001
1.809326e+003,3.243336e+001
1.810290e+003,2.979018e+001
1.811254e+003,2.965958e+001
1.812219e+003,3.174143e+001
1.813183e+003,3.417392e+001
1.814147e+003,3.578335e+001
1.815111e+003,3.592163e+001
1.816075e+003,3.456051e+001
1.817040e+003,3.290239e+001
1.818004e+003,3.222870e+001
1.818968e+003,3.249799e+001
1.819932e+003,3.368982e+001
1.820897e+003,3.542821e+001
1.821861e+003,3.571547e+001
1.822825e+003,3.402117e+001
1.823789e+003,3.214674e+001
1.824754e+003,3.120956e+001
1.825718e+003,3.134073e+001
1.826682e+003,3.155227e+001
1.827646e+003,3.208955e+001
1.828610e+003,3.490307e+001
1.829575e+003,3.961575e+001
1.830539e+003,4.186436e+001
1.831503e+003,3.938708e+001
1.832467e+003,3.666052e+001
1.833432e+003,3.759955e+001
1.834396e+003,3.980444e+001
1.835360e+003,4.034006e+001
1.836324e+003,4.017151e+001
1.837289e+003,4.100692e+001
1.838253e+003,4.218906e+001
1.839217e+003,4.098265e+001
1.840181e+003,3.651499e+001
1.841146e+003,3.294370e+001
1.842110e+003,3.410011e+001
1.843074e+003,3.777806e+001
1.844038e+003,3.913698e+001
1.845002e+003,3.808895e+001
1.845967e+003,3.741031e+001
1.846931e+003,3.732675e+001
1.847895e+003,3.757156e+001
1.848859e+003,3.726672e+001
1.849824e+003,3.663078e+001
1.850788e+003,3.626971e+001
1.851752e+003,3.631862e+001
1.852716e+003,3.748190e+001
1.853681e+003,3.942831e+001
1.854645e+003,4.120229e+001
1.855609e+003,4.223102e+001
1.856573e+003,4.218015e+001
1.857537e+003,4.074877e+001
1.858502e+003,3.842232e+001
1.859466e+003,3.618923e+001
1.860430e+003,3.484463e+001
1.861394e+003,3.452223e+001
1.862359e+003,3.483722e+001
1.863323e+003,3.658530e+001
1.864287e+003,3.985132e+001
1.865251e+003,4.077962e+001
1.866216e+003,3.828268e+001
1.867180e+003,3.638443e+001
1.868144e+003,3.735152e+001
1.869108e+003,3.868891e+001
1.870073e+003,3.755064e+001
1.871037e+003,3.479163e+001
1.872001e+003,3.318155e+001
1.872965e+003,3.304350e+001
1.873929e+003,3.327721e+001
1.874894e+003,3.295756e+001
1.875858e+003,3.285806e+001
1.876822e+003,3.398303e+001
1.877786e+003,3.547025e+001
1.878751e+003,3.723235e+001
1.879715e+003,3.857611e+001
1.880679e+003,3.758729e+001
1.881643e+003,3.519983e+001
1.882608e+003,3.512376e+001
1.883572e+003,3.821383e+001
1.884536e+003,4.060003e+001
1.885500e+003,3.905879e+001
1.886464e+003,3.579287e+001
1.887429e+003,3.532541e+001
1.888393e+003,3.733395e+001
1.889357e+003,3.689955e+001
1.890321e+003,3.356560e+001
1.891286e+003,3.302157e+001
1.892250e+003,3.668877e+001
1.893214e+003,3.890704e+001
1.894178e+003,3.696600e+001
1.895143e+003,3.540991e+001
1.896107e+003,3.846373e+001
1.897071e+003,4.333425e+001
1.898035e+003,4.444799e+001
1.899000e+003,4.171725e+001
1.899964e+003,3.975101e+001
1.900928e+003,4.128031e+001
1.901892e+003,4.226914e+001
1.902856e+003,3.955141e+001
1.903821e+003,3.694001e+001
1.904785e+003,3.633475e+001
1.905749e+003,3.607745e+001
1.906713e+003,3.528584e+001
1.907678e+003,3.465243e+001
1.908642e+003,3.488064e+001
1.909606e+003,3.567304e+001
1.910570e+003,3.618096e+001
1.911535e+003,3.615902e+001
1.912499e+003,3.624742e+001
1.913463e+003,3.676490e+001
1.914427e+003,3.679567e+001
1.915391e+003,3.528639e+001
1.916356e+003,3.309425e+001
1.917320e+003,3.247404e+001
1.918284e+003,3.368996e+001
1.919248e+003,3.528123e+001
1.920213e+003,3.615228e+001
1.921177e+003,3.681441e+001
1.922141e+003,3.806398e+001
1.923105e+003,3.948560e+001
1.924070e+003,4.080321e+001
1.925034e+003,4.166158e+001
1.925998e+003,4.082310e+001
1.926962e+003,3.823194e+001
1.927927e+003,3.631587e+001
1.928891e+003,3.589607e+001
1.929855e+003,3.528437e+001
1.930819e+003,3.278667e+001
1.931783e+003,3.131789e+001
1.932748e+003,3.347485e+001
1.933712e+003,3.678114e+001
1.934676e+003,3.954099e+001
1.935640e+003,4.107047e+001
1.936605e+003,4.003181e+001
1.937569e+003,3.674683e+001
1.938533e+003,3.388908e+001
1.939497e+003,3.327222e+001
1.940462e+003,3.403677e+001
1.941426e+003,3.466904e+001
1.942390e+003,3.508494e+001
1.943354e+003,3.599558e+001
1.944318e+003,3.655160e+001
1.945283e+003,3.494263e+001
1.946247e+003,3.209140e+001
1.947211e+003,3.086584e+001
1.948175e+003,3.189844e+001
1.949140e+003,3.308857e+001
1.950104e+003,3.270825e+001
1.951068e+003,3.187634e+001
1.952032e+003,3.261728e+001
1.952997e+003,3.418505e+001
1.953961e+003,3.359084e+001
1.954925e+003,3.049454e+001
1.955889e+003,2.832303e+001
1.956854e+003,2.708714e+001
1.957818e+003,2.709579e+001
1.958782e+003,3.030920e+001
1.959746e+003,3.273141e+001
1.960710e+003,3.062096e+001
1.961675e+003,2.825562e+001
1.962639e+003,3.086189e+001
1.963603e+003,3.504322e+001
1.964567e+003,3.463506e+001
1.965532e+003,3.014762e+001
1.966496e+003,2.670661e+001
1.967460e+003,2.574826e+001
1.968424e+003,2.625792e+001
1.969389e+003,2.858373e+001
1.970353e+003,3.104259e+001
1.971317e+003,3.276030e+001
1.972281e+003,3.359652e+001
1.973245e+003,3.302295e+001
1.974210e+003,3.171017e+001
1.975174e+003,3.040897e+001
1.976138e+003,2.939775e+001
1.977102e+003,2.933506e+001
1.978067e+003,3.026376e+001
1.979031e+003,3.133809e+001
1.979995e+003,3.204851e+001
1.980959e+003,3.226991e+001
1.981924e+003,3.170303e+001
1.982888e+003,3.069822e+001
1.983852e+003,2.970798e+001
1.984816e+003,2.840268e+001
1.985781e+003,2.839802e+001
1.986745e+003,3.068602e+001
1.987709e+003,3.257161e+001
1.988673e+003,3.262918e+001
1.989637e+003,3.144675e+001
1.990602e+003,2.845048e+001
1.991566e+003,2.573782e+001
1.992530e+003,2.813179e+001
1.993494e+003,3.481939e+001
1.994459e+003,3.693996e+001
1.995423e+003,3.239408e+001
1.996387e+003,2.926476e+001
1.997351e+003,2.732726e+001
1.998316e+003,2.673362e+001
1.999280e+003,2.994106e+001
2.000244e+003,3.277881e+001
2.001208e+003,3.238242e+001
2.002172e+003,3.104149e+001
2.003137e+003,3.036303e+001
2.004101e+003,3.030023e+001
2.005065e+003,3.118298e+001
2.006029e+003,3.294853e+001
2.006994e+003,3.397755e+001
2.007958e+003,3.309056e+001
2.008922e+003,3.206025e+001
2.009886e+003,3.342641e+001
2.010851e+003,3.535976e+001
2.011815e+003,3.520137e+001
2.012779e+003,3.396735e+001
2.013743e+003,3.324003e+001
2.014708e+003,3.294868e+001
2.015672e+003,3.274728e+001
2.016636e+003,3.271391e+001
2.017600e+003,3.301824e+001
2.018564e+003,3.355913e+001
2.019529e+003,3.420273e+001
2.020493e+003,3.519373e+001
2.021457e+003,3.599345e+001
2.022421e+003,3.438856e+001
2.023386e+003,3.083778e+001
2.024350e+003,2.981509e+001
2.025314e+003,3.133767e+001
2.026278e+003,3.282081e+001
2.027243e+003,3.414110e+001
2.028207e+003,3.514761e+001
2.029171e+003,3.577518e+001
2.030135e+003,3.487786e+001
2.031099e+003,3.080505e+001
2.032064e+003,2.681415e+001
2.033028e+003,2.813103e+001
2.033992e+003,3.300345e+001
2.034956e+003,3.481110e+001
2.035921e+003,3.427273e+001
2.036885e+003,3.315958e+001
2.037849e+003,3.008708e+001
2.038813e+003,2.926121e+001
2.039778e+003,3.067136e+001
2.040742e+003,3.155629e+001
2.041706e+003,3.202404e+001
2.042670e+003,3.259590e+001
2.043635e+003,3.348392e+001
2.044599e+003,3.450266e+001
2.045563e+003,3.587833e+001
2.046527e+003,3.744320e+001
2.047491e+003,3.716695e+001
2.048456e+003,3.418095e+001
2.049420e+003,3.238911e+001
2.050384e+003,3.290329e+001
2.051348e+003,3.325510e+001
2.052313e+003,3.276517e+001
2.053277e+003,3.224759e+001
2.054241e+003,3.276826e+001
2.055205e+003,3.368523e+001
2.056170e+003,3.317854e+001
2.057134e+003,3.124216e+001
2.058098e+003,2.953874e+001
2.059062e+003,2.898595e+001
2.060027e+003,2.916910e+001
2.060991e+003,2.957088e+001
2.061955e+003,3.073840e+001
2.062919e+003,3.445943e+001
2.063884e+003,3.766319e+001
2.064848e+003,3.605071e+001
2.065812e+003,3.254675e+001
2.066776e+003,3.128093e+001
2.067740e+003,3.180711e+001
2.068705e+003,3.319716e+001
2.069669e+003,3.492875e+001
2.070633e+003,3.558661e+001
2.071597e+003,3.446992e+001
2.072562e+003,3.230458e+001
2.073526e+003,3.012586e+001
2.074490e+003,2.904553e+001
2.075454e+003,3.018198e+001
2.076418e+003,3.226746e+001
2.077383e+003,3.154501e+001
2.078347e+003,2.791826e+001
2.079311e+003,2.527574e+001
2.080275e+003,2.515305e+001
2.081240e+003,2.638675e+001
2.082204e+003,2.791230e+001
2.083168e+003,2.883036e+001
2.084132e+003,2.837695e+001
2.085096e+003,2.769545e+001
2.086061e+003,2.908882e+001
2.087025e+003,3.142146e+001
2.087989e+003,2.980994e+001
2.088953e+003,2.407658e+001
2.089918e+003,2.117000e+001
2.090882e+003,2.161515e+001
2.091846e+003,2.232879e+001
2.092810e+003,2.288690e+001
2.093775e+003,2.453350e+001
2.094739e+003,2.853838e+001
2.095703e+003,3.110666e+001
2.096667e+003,2.882935e+001
2.097632e+003,2.497048e+001
2.098596e+003,2.432218e+001
2.099560e+003,2.648033e+001
2.100524e+003,2.782274e+001
2.101489e+003,2.747684e+001
2.102453e+003,2.685793e+001
2.103417e+003,2.620483e+001
2.104381e+003,2.575423e+001
2.105345e+003,2.655588e+001
2.106310e+003,2.646019e+001
2.107274e+003,2.310642e+001
2.108238e+003,2.052884e+001
2.109202e+003,2.205751e+001
2.110167e+003,2.519555e+001
2.111131e+003,2.659853e+001
2.112095e+003,2.613925e+001
2.113059e+003,2.526787e+001
2.114023e+003,2.513078e+001
2.114988e+003,2.628739e+001
2.115952e+003,2.801680e+001
2.116916e+003,2.894165e+001
2.117880e+003,2.928786e+001
2.118845e+003,2.880143e+001
2.119809e+003,2.796050e+001
2.120773e+003,2.742559e+001
2.121737e+003,2.680040e+001
2.122702e+003,2.572250e+001
2.123666e+003,2.373762e+001
2.124630e+003,2.116679e+001
2.125594e+003,1.987829e+001
2.126559e+003,2.060022e+001
2.127523e+003,2.069245e+001
2.128487e+003,1.827319e+001
2.129451e+003,1.700029e+001
2.130416e+003,1.918576e+001
2.131380e+003,2.189105e+001
2.132344e+003,2.313148e+001
2.133308e+003,2.364614e+001
2.134272e+003,2.455308e+001
2.135237e+003,2.497165e+001
2.136201e+003,2.290114e+001
2.137165e+003,1.925226e+001
2.138129e+003,1.800076e+001
2.139094e+003,2.060374e+001
2.140058e+003,2.280853e+001
2.141022e+003,2.095307e+001
2.141986e+003,1.829480e+001
2.142950e+003,1.794023e+001
2.143915e+003,1.865359e+001
2.144879e+003,1.951758e+001
2.145843e+003,1.972445e+001
2.146807e+003,1.766135e+001
2.147772e+003,1.513011e+001
2.148736e+003,1.592307e+001
2.149700e+003,1.958346e+001
2.150664e+003,2.228590e+001
2.151629e+003,2.248131e+001
2.152593e+003,2.096613e+001
2.153557e+003,1.812312e+001
2.154521e+003,1.548666e+001
2.155486e+003,1.395016e+001
2.156450e+003,1.328932e+001
2.157414e+003,1.412878e+001
2.158378e+003,1.590317e+001
2.159343e+003,1.794176e+001
2.160307e+003,1.961347e+001
2.161271e+003,1.907314e+001
2.162235e+003,1.636494e+001
2.163199e+003,1.380903e+001
2.164164e+003,1.269115e+001
2.165128e+003,1.321938e+001
2.166092e+003,1.591296e+001
2.167056e+003,1.927589e+001
2.168021e+003,2.122956e+001
2.168985e+003,2.140486e+001
2.169949e+003,1.921027e+001
2.170913e+003,1.594652e+001
2.171877e+003,1.425948e+001
2.172842e+003,1.434716e+001
2.173806e+003,1.508405e+001
2.174770e+003,1.591859e+001
2.175734e+003,1.726333e+001
2.176699e+003,1.905507e+001
2.177663e+003,1.881262e+001
2.178627e+003,1.424936e+001
2.179591e+003,9.035828e+000
2.180556e+003,7.927940e+000
2.181520e+003,9.703339e+000
2.182484e+003,1.421817e+001
2.183448e+003,1.958121e+001
2.184413e+003,1.861183e+001
2.185377e+003,1.263225e+001
2.186341e+003,8.734764e+000
2.187305e+003,8.305824e+000
2.188270e+003,9.695908e+000
2.189234e+003,1.215057e+001
2.190198e+003,1.451153e+001
2.191162e+003,1.538615e+001
2.192126e+003,1.447358e+001
2.193091e+003,1.141697e+001
2.194055e+003,7.804207e+000
2.195019e+003,7.134354e+000
2.195983e+003,8.665054e+000
2.196948e+003,9.351578e+000
2.197912e+003,9.254036e+000
2.198876e+003,9.803627e+000
2.199840e+003,1.109052e+001
2.200804e+003,1.336430e+001
2.201769e+003,1.632384e+001
2.202733e+003,1.674194e+001
2.203697e+003,1.249670e+001
2.204661e+003,8.032448e+000
2.205626e+003,9.356644e+000
2.206590e+003,1.339519e+001
2.207554e+003,1.328285e+001
2.208518e+003,1.026590e+001
2.209483e+003,8.513214e+000
2.210447e+003,8.275787e+000
2.211411e+003,9.118370e+000
2.212375e+003,1.047168e+001
2.213340e+003,1.026517e+001
2.214304e+003,8.187256e+000
2.215268e+003,6.731400e+000
2.216232e+003,7.139923e+000
2.217197e+003,8.312271e+000
2.218161e+003,9.905045e+000
2.219125e+003,1.128520e+001
2.220089e+003,1.115377e+001
2.221053e+003,1.034258e+001
2.222018e+003,9.609436e+000
2.222982e+003,8.143448e+000
2.223946e+003,4.377708e+000
2.224910e+003,0.000000e+000
2.225875e+003,2.689133e-001
2.226839e+003,5.383820e+000
2.227803e+003,9.872726e+000
2.228767e+003,1.085413e+001
2.229731e+003,1.035975e+001
2.230696e+003,1.021126e+001
2.231660e+003,1.018996e+001
2.232624e+003,1.091905e+001
2.233588e+003,1.167184e+001
2.234553e+003,9.546204e+000
2.235517e+003,6.263802e+000
2.236481e+003,5.237518e+000
2.237445e+003,5.928810e+000
2.238410e+003,6.937576e+000
2.239374e+003,8.324837e+000
2.240338e+003,1.128037e+001
2.241302e+003,1.560596e+001
2.242267e+003,1.697214e+001
2.243231e+003,1.207999e+001
2.244195e+003,6.555466e+000
2.245159e+003,5.698593e+000
2.246124e+003,7.083397e+000
2.247088e+003,9.564026e+000
2.248052e+003,1.117735e+001
2.249016e+003,8.326401e+000
2.249980e+003,3.683357e+000
2.250945e+003,2.103592e+000
2.251909e+003,3.447144e+000
2.252873e+003,4.751823e+000
2.253837e+003,4.975853e+000
2.254802e+003,5.018494e+000
2.255766e+003,5.555443e+000
2.256730e+003,6.615021e+000
2.257694e+003,8.263405e+000
2.258658e+003,9.716408e+000
2.259623e+003,1.110597e+001
2.260587e+003,1.135309e+001
2.261551e+003,7.922401e+000
2.262515e+003,4.148186e+000
2.263480e+003,4.459793e+000
2.264444e+003,7.825020e+000
2.265408e+003,1.211335e+001
2.266372e+003,1.576319e+001
2.267337e+003,1.626054e+001
2.268301e+003,1.307661e+001
2.269265e+003,1.016277e+001
2.270229e+003,1.006529e+001
2.271194e+003,1.127710e+001
2.272158e+003,1.143824e+001
2.273122e+003,1.162224e+001
2.274086e+003,1.377505e+001
2.275051e+003,1.589501e+001
2.276015e+003,1.687936e+001
2.276979e+003,1.719939e+001
2.277943e+003,1.652159e+001
2.278907e+003,1.530547e+001
2.279872e+003,1.514336e+001
2.280836e+003,1.580867e+001
2.281800e+003,1.508130e+001
2.282764e+003,1.213632e+001
2.283729e+003,1.074235e+001
2.284693e+003,1.305401e+001
2.285657e+003,1.562516e+001
2.286621e+003,1.648215e+001
2.287585e+003,1.649966e+001
2.288550e+003,1.682964e+001
2.289514e+003,1.728701e+001
2.290478e+003,1.770103e+001
2.291442e+003,1.794731e+001
2.292407e+003,1.700683e+001
2.293371e+003,1.508880e+001
2.294335e+003,1.506729e+001
2.295299e+003,1.752882e+001
2.296264e+003,1.834072e+001
2.297228e+003,1.674950e+001
2.298192e+003,1.621064e+001
2.299156e+003,1.855695e+001
2.300121e+003,1.922827e+001
2.301085e+003,1.466961e+001
2.302049e+003,1.147658e+001
2.303013e+003,1.463696e+001
2.303978e+003,1.936403e+001
2.304942e+003,2.007039e+001
2.305906e+003,1.855093e+001
2.306870e+003,1.930740e+001
2.307834e+003,2.205482e+001
2.308799e+003,2.419450e+001
2.309763e+003,2.602918e+001
2.310727e+003,2.799100e+001
2.311691e+003,2.979217e+001
2.312656e+003,2.911455e+001
2.313620e+003,2.548436e+001
2.314584e+003,2.333757e+001
2.315548e+003,2.442072e+001
2.316512e+003,2.542369e+001
2.317477e+003,2.436317e+001
2.318441e+003,2.323152e+001
2.319405e+003,2.369144e+001
2.320369e+003,2.546217e+001
2.321334e+003,2.842200e+001
2.322298e+003,3.178655e+001
2.323262e+003,3.524251e+001
2.324226e+003,3.942632e+001
2.325191e+003,4.431196e+001
2.326155e+003,4.900494e+001
2.327119e+003,5.199232e+001
2.328083e+003,5.264081e+001
2.329048e+003,4.999222e+001
2.330012e+003,4.474928e+001
2.330976e+003,4.118282e+001
2.331940e+003,4.128307e+001
2.332905e+003,4.304028e+001
2.333869e+003,4.704607e+001
2.334833e+003,5.077025e+001
2.335797e+003,5.012656e+001
2.336761e+003,4.918011e+001
2.337726e+003,5.312746e+001
2.338690e+003,5.786272e+001
2.339654e+003,5.769902e+001
2.340618e+003,5.478295e+001
2.341583e+003,5.349490e+001
2.342547e+003,5.473061e+001
2.343511e+003,5.819800e+001
2.344475e+003,6.358601e+001
2.345439e+003,6.760191e+001
2.346404e+003,6.865551e+001
2.347368e+003,6.868840e+001
2.348332e+003,6.828600e+001
2.349296e+003,6.838742e+001
2.350261e+003,6.910675e+001
2.351225e+003,7.091183e+001
2.352189e+003,7.404453e+001
2.353153e+003,7.727789e+001
2.354118e+003,7.931396e+001
2.355082e+003,8.063188e+001
2.356046e+003,8.285526e+001
2.357010e+003,8.640786e+001
2.357975e+003,8.991325e+001
2.358939e+003,9.314435e+001
2.359903e+003,9.654092e+001
2.360867e+003,9.911531e+001
2.361832e+003,1.015462e+002
2.362796e+003,1.052782e+002
2.363760e+003,1.081134e+002
2.364724e+003,1.093914e+002
2.365688e+003,1.110018e+002
2.366653e+003,1.129884e+002
2.367617e+003,1.155115e+002
2.368581e+003,1.197356e+002
2.369545e+003,1.245544e+002
2.370510e+003,1.274476e+002
2.371474e+003,1.289825e+002
2.372438e+003,1.295092e+002
2.373402e+003,1.294749e+002
2.374366e+003,1.326707e+002
2.375331e+003,1.383127e+002
2.376295e+003,1.418929e+002
2.377259e+003,1.430459e+002
2.378223e+003,1.434962e+002
2.379188e+003,1.439192e+002
2.380152e+003,1.449207e+002
2.381116e+003,1.469019e+002
2.382080e+003,1.493231e+002
2.383045e+003,1.519447e+002
2.384009e+003,1.536518e+002
2.384973e+003,1.530640e+002
2.385937e+003,1.519843e+002
2.386902e+003,1.523237e+002
2.387866e+003,1.536961e+002
2.388830e+003,1.542774e+002
2.389794e+003,1.547037e+002
2.390759e+003,1.570143e+002
2.391723e+003,1.603076e+002
2.392687e+003,1.627300e+002
2.393651e+003,1.645430e+002
2.394615e+003,1.659362e+002
2.395580e+003,1.663448e+002
2.396544e+003,1.664409e+002
2.397508e+003,1.659908e+002
2.398472e+003,1.654776e+002
2.399437e+003,1.649460e+002
2.400401e+003,1.655642e+002
2.401365e+003,1.679520e+002
2.402329e+003,1.703258e+002
2.403293e+003,1.720792e+002
2.404258e+003,1.722021e+002
2.405222e+003,1.694049e+002
2.406186e+003,1.658988e+002
2.407150e+003,1.657535e+002
2.408115e+003,1.683855e+002
2.409079e+003,1.717612e+002
2.410043e+003,1.757373e+002
2.411007e+003,1.782162e+002
2.411972e+003,1.793455e+002
2.412936e+003,1.796294e+002
2.413900e+003,1.789914e+002
2.414864e+003,1.785661e+002
2.415829e+003,1.791384e+002
2.416793e+003,1.805604e+002
2.417757e+003,1.823859e+002
2.418721e+003,1.841099e+002
2.419686e+003,1.855798e+002
2.420650e+003,1.871616e+002
2.421614e+003,1.892047e+002
2.422578e+003,1.911512e+002
2.423542e+003,1.929327e+002
2.424507e+003,1.935248e+002
2.425471e+003,1.911027e+002
2.426435e+003,1.884084e+002
2.427399e+003,1.889152e+002
2.428364e+003,1.904576e+002
2.429328e+003,1.889389e+002
2.430292e+003,1.854487e+002
2.431256e+003,1.850542e+002
2.432220e+003,1.889170e+002
2.433185e+003,1.905428e+002
2.434149e+003,1.860788e+002
2.435113e+003,1.835276e+002
2.436077e+003,1.846664e+002
2.437042e+003,1.855652e+002
2.438006e+003,1.855229e+002
2.438970e+003,1.849662e+002
2.439934e+003,1.842056e+002
2.440899e+003,1.825827e+002
2.441863e+003,1.796341e+002
2.442827e+003,1.763066e+002
2.443791e+003,1.732032e+002
2.444756e+003,1.704566e+002
2.445720e+003,1.699388e+002
2.446684e+003,1.710478e+002
2.447648e+003,1.708405e+002
2.448613e+003,1.695098e+002
2.449577e+003,1.666697e+002
2.450541e+003,1.632083e+002
2.451505e+003,1.626908e+002
2.452469e+003,1.646782e+002
2.453434e+003,1.645396e+002
2.454398e+003,1.606495e+002
2.455362e+003,1.558086e+002
2.456326e+003,1.524752e+002
2.457291e+003,1.514861e+002
2.458255e+003,1.533187e+002
2.459219e+003,1.551814e+002
2.460183e+003,1.549688e+002
2.461147e+003,1.536445e+002
2.462112e+003,1.537479e+002
2.463076e+003,1.532968e+002
2.464040e+003,1.473871e+002
2.465004e+003,1.410212e+002
2.465969e+003,1.425483e+002
2.466933e+003,1.484996e+002
2.467897e+003,1.508864e+002
2.468861e+003,1.494994e+002
2.469826e+003,1.474347e+002
2.470790e+003,1.448940e+002
2.471754e+003,1.418053e+002
2.472718e+003,1.384534e+002
2.473683e+003,1.365052e+002
2.474647e+003,1.353078e+002
2.475611e+003,1.345862e+002
2.476575e+003,1.347774e+002
2.477540e+003,1.347157e+002
2.478504e+003,1.336322e+002
2.479468e+003,1.322121e+002
2.480432e+003,1.310669e+002
2.481396e+003,1.302558e+002
2.482361e+003,1.303701e+002
2.483325e+003,1.308207e+002
2.484289e+003,1.299938e+002
2.485253e+003,1.283885e+002
2.486218e+003,1.265821e+002
2.487182e+003,1.248608e+002
2.488146e+003,1.239189e+002
2.489110e+003,1.236688e+002
2.490074e+003,1.238363e+002
2.491039e+003,1.244912e+002
2.492003e+003,1.252794e+002
2.492967e+003,1.252405e+002
2.493931e+003,1.242111e+002
2.494896e+003,1.229148e+002
2.495860e+003,1.214504e+002
2.496824e+003,1.197080e+002
2.497788e+003,1.188462e+002
2.498753e+003,1.186459e+002
2.499717e+003,1.188291e+002
2.500681e+003,1.196170e+002
2.501645e+003,1.198577e+002
2.502610e+003,1.187626e+002
2.503574e+003,1.181583e+002
2.504538e+003,1.199281e+002
2.505502e+003,1.226487e+002
2.506467e+003,1.241605e+002
2.507431e+003,1.241327e+002
2.508395e+003,1.216916e+002
2.509359e+003,1.193799e+002
2.510323e+003,1.208213e+002
2.511288e+003,1.236121e+002
2.512252e+003,1.250276e+002
2.513216e+003,1.251609e+002
2.514180e+003,1.241193e+002
2.515145e+003,1.226971e+002
2.516109e+003,1.227666e+002
2.517073e+003,1.243009e+002
2.518037e+003,1.245256e+002
2.519001e+003,1.225686e+002
2.519966e+003,1.215168e+002
2.520930e+003,1.217888e+002
2.521894e+003,1.218026e+002
2.522858e+003,1.213823e+002
2.523823e+003,1.211084e+002
2.524787e+003,1.210767e+002
2.525751e+003,1.211964e+002
2.526715e+003,1.214976e+002
2.527680e+003,1.205339e+002
2.528644e+003,1.172803e+002
2.529608e+003,1.144829e+002
2.530572e+003,1.148794e+002
2.531537e+003,1.164957e+002
2.532501e+003,1.178757e+002
2.533465e+003,1.188902e+002
2.534429e+003,1.190063e+002
2.535394e+003,1.192371e+002
2.536358e+003,1.206680e+002
2.537322e+003,1.219837e+002
2.538286e+003,1.211843e+002
2.539250e+003,1.194561e+002
2.540215e+003,1.199821e+002
2.541179e+003,1.225107e+002
2.542143e+003,1.231197e+002
2.543107e+003,1.223477e+002
2.544072e+003,1.206585e+002
2.545036e+003,1.163610e+002
2.546000e+003,1.148556e+002
2.546964e+003,1.169048e+002
2.547928e+003,1.174748e+002
2.548893e+003,1.154905e+002
2.549857e+003,1.139208e+002
2.550821e+003,1.140691e+002
2.551785e+003,1.148748e+002
2.552750e+003,1.156046e+002
2.553714e+003,1.148632e+002
2.554678e+003,1.107365e+002
2.555642e+003,1.074222e+002
2.556607e+003,1.098887e+002
2.557571e+003,1.128391e+002
2.558535e+003,1.120033e+002
2.559499e+003,1.096610e+002
2.560464e+003,1.076347e+002
2.561428e+003,1.068765e+002
2.562392e+003,1.085124e+002
2.563356e+003,1.102867e+002
2.564321e+003,1.078247e+002
2.565285e+003,1.034303e+002
2.566249e+003,1.047370e+002
2.567213e+003,1.110914e+002
2.568177e+003,1.106382e+002
2.569142e+003,1.031543e+002
2.570106e+003,9.970874e+001
2.571070e+003,1.007490e+002
2.572034e+003,1.012772e+002
2.572999e+003,1.008638e+002
2.573963e+003,1.016012e+002
2.574927e+003,1.032692e+002
2.575891e+003,1.036605e+002
2.576855e+003,1.018329e+002
2.577820e+003,9.980453e+001
2.578784e+003,9.999099e+001
2.579748e+003,9.946416e+001
2.580712e+003,9.458337e+001
2.581677e+003,9.133017e+001
2.582641e+003,9.275552e+001
2.583605e+003,9.398279e+001
2.584569e+003,9.270131e+001
2.585534e+003,9.148997e+001
2.586498e+003,9.236997e+001
2.587462e+003,9.294036e+001
2.588426e+003,9.023321e+001
2.589391e+003,8.629025e+001
2.590355e+003,8.538435e+001
2.591319e+003,8.627598e+001
2.592283e+003,8.450700e+001
2.593248e+003,8.125031e+001
2.594212e+003,7.962379e+001
2.595176e+003,7.938623e+001
2.596140e+003,8.063982e+001
2.597104e+003,8.222328e+001
2.598069e+003,8.135015e+001
2.599033e+003,7.885182e+001
2.599997e+003,7.866615e+001
2.600961e+003,8.113022e+001
2.601926e+003,8.139951e+001
2.602890e+003,7.747645e+001
2.603854e+003,7.589233e+001
2.604818e+003,7.803299e+001
2.605782e+003,7.917979e+001
2.606747e+003,7.959216e+001
2.607711e+003,7.915789e+001
2.608675e+003,7.774773e+001
2.609639e+003,7.568736e+001
2.610604e+003,7.321748e+001
2.611568e+003,7.163830e+001
2.612532e+003,7.161654e+001
2.613496e+003,7.295480e+001
2.614461e+003,7.575443e+001
2.615425e+003,7.751969e+001
2.616389e+003,7.472713e+001
2.617353e+003,7.167756e+001
2.618318e+003,7.321983e+001
2.619282e+003,7.484600e+001
2.620246e+003,7.300203e+001
2.621210e+003,7.073438e+001
2.622175e+003,6.871107e+001
2.623139e+003,6.793806e+001
2.624103e+003,7.100371e+001
2.625067e+003,7.486239e+001
2.626031e+003,7.399212e+001
2.626996e+003,7.034039e+001
2.627960e+003,6.701833e+001
2.628924e+003,6.351723e+001
2.629888e+003,6.202557e+001
2.630853e+003,6.199590e+001
2.631817e+003,6.276154e+001
2.632781e+003,6.500932e+001
2.633745e+003,6.762640e+001
2.634709e+003,6.908740e+001
2.635674e+003,6.911622e+001
2.636638e+003,6.807233e+001
2.637602e+003,6.674345e+001
2.638566e+003,6.636556e+001
2.639531e+003,6.671172e+001
2.640495e+003,6.691388e+001
2.641459e+003,6.573427e+001
2.642423e+003,6.263428e+001
2.643388e+003,6.199884e+001
2.644352e+003,6.483514e+001
2.645316e+003,6.567732e+001
2.646280e+003,6.251714e+001
2.647245e+003,5.973982e+001
2.648209e+003,6.061293e+001
2.649173e+003,6.246084e+001
2.650137e+003,6.187009e+001
2.651102e+003,6.124188e+001
2.652066e+003,6.246935e+001
2.653030e+003,6.331354e+001
2.653994e+003,6.466513e+001
2.654958e+003,6.529741e+001
2.655923e+003,6.335075e+001
2.656887e+003,6.118015e+001
2.657851e+003,5.918515e+001
2.658815e+003,5.782739e+001
2.659780e+003,5.860165e+001
2.660744e+003,6.035974e+001
2.661708e+003,6.066437e+001
2.662672e+003,6.023885e+001
2.663636e+003,6.147204e+001
2.664601e+003,6.314123e+001
2.665565e+003,6.065958e+001
2.666529e+003,5.639758e+001
2.667493e+003,5.582375e+001
2.668458e+003,5.735728e+001
2.669422e+003,5.634397e+001
2.670386e+003,5.315702e+001
2.671350e+003,5.217509e+001
2.672315e+003,5.416217e+001
2.673279e+003,5.423283e+001
2.674243e+003,5.076777e+001
2.675207e+003,4.899159e+001
2.676172e+003,4.934366e+001
2.677136e+003,5.051424e+001
2.678100e+003,5.285285e+001
2.679064e+003,5.518176e+001
2.680029e+003,5.647371e+001
2.680993e+003,5.520445e+001
2.681957e+003,5.193647e+001
2.682921e+003,4.846809e+001
2.683885e+003,4.519154e+001
2.684850e+003,4.367042e+001
2.685814e+003,4.628605e+001
2.686778e+003,4.892616e+001
2.687742e+003,4.855399e+001
2.688707e+003,4.847558e+001
2.689671e+003,4.836207e+001
2.690635e+003,4.835748e+001
2.691599e+003,4.993902e+001
2.692563e+003,4.994151e+001
2.693528e+003,4.676740e+001
2.694492e+003,4.366929e+001
2.695456e+003,4.278546e+001
2.696420e+003,4.331207e+001
2.697385e+003,4.483900e+001
2.698349e+003,4.589622e+001
2.699313e+003,4.451041e+001
2.700277e+003,4.273147e+001
2.701242e+003,4.135453e+001
2.702206e+003,3.999158e+001
2.703170e+003,3.876259e+001
2.704134e+003,3.802168e+001
2.705099e+003,3.902607e+001
2.706063e+003,4.039905e+001
2.707027e+003,4.014510e+001
2.707991e+003,3.902246e+001
2.708956e+003,3.834418e+001
2.709920e+003,3.765182e+001
2.710884e+003,3.759720e+001
2.711848e+003,3.803139e+001
2.712813e+003,3.671125e+001
2.713777e+003,3.539654e+001
2.714741e+003,3.707124e+001
2.715705e+003,3.861491e+001
2.716669e+003,3.581011e+001
2.717634e+003,3.148973e+001
2.718598e+003,3.183080e+001
2.719562e+003,3.684206e+001
2.720526e+003,3.925123e+001
2.721490e+003,3.713713e+001
2.722455e+003,3.490697e+001
2.723419e+003,3.371169e+001
2.724383e+003,3.329208e+001
2.725347e+003,3.354719e+001
2.726312e+003,3.319776e+001
2.727276e+003,3.174609e+001
2.728240e+003,3.135719e+001
2.729204e+003,3.279002e+001
2.730169e+003,3.263621e+001
2.731133e+003,2.925249e+001
2.732097e+003,2.735724e+001
2.733061e+003,2.896481e+001
2.734026e+003,3.037716e+001
2.734990e+003,3.471387e+001
2.735954e+003,3.535822e+001
2.736918e+003,2.962521e+001
2.737883e+003,2.658745e+001
2.738847e+003,2.742361e+001
2.739811e+003,2.898764e+001
2.740775e+003,3.033040e+001
2.741740e+003,3.076499e+001
2.742704e+003,3.056892e+001
2.743668e+003,2.997322e+001
2.744632e+003,2.775223e+001
2.745596e+003,2.646232e+001
2.746561e+003,2.769514e+001
2.747525e+003,2.690802e+001
2.748489e+003,2.314134e+001
2.749453e+003,2.085052e+001
2.750417e+003,2.175265e+001
2.751382e+003,2.305485e+001
2.752346e+003,2.287051e+001
2.753310e+003,2.299154e+001
2.754274e+003,2.468487e+001
2.755239e+003,2.638486e+001
2.756203e+003,2.692793e+001
2.757167e+003,2.693269e+001
2.758131e+003,2.622647e+001
2.759096e+003,2.575956e+001
2.760060e+003,2.786678e+001
2.761024e+003,2.873530e+001
2.761988e+003,2.410668e+001
2.762953e+003,2.020856e+001
2.763917e+003,2.061314e+001
2.764881e+003,2.314896e+001
2.765845e+003,2.605156e+001
2.766810e+003,2.780028e+001
2.767774e+003,2.637874e+001
2.768738e+003,2.367664e+001
2.769702e+003,2.081638e+001
2.770667e+003,1.951988e+001
2.771631e+003,2.146185e+001
2.772595e+003,2.387409e+001
2.773559e+003,2.765514e+001
2.774523e+003,3.024510e+001
2.775488e+003,2.742775e+001
2.776452e+003,2.422057e+001
2.777416e+003,2.436794e+001
2.778380e+003,2.483699e+001
2.779344e+003,2.646530e+001
2.780309e+003,2.980228e+001
2.781273e+003,2.842933e+001
2.782237e+003,2.608733e+001
2.783201e+003,2.684683e+001
2.784166e+003,2.709147e+001
2.785130e+003,2.624475e+001
2.786094e+003,2.546093e+001
2.787058e+003,2.575835e+001
2.788023e+003,2.685870e+001
2.788987e+003,2.623189e+001
2.789951e+003,2.441253e+001
2.790915e+003,2.588034e+001
2.791880e+003,2.976712e+001
2.792844e+003,2.884709e+001
2.793808e+003,2.526927e+001
2.794772e+003,2.500265e+001
2.795737e+003,2.536256e+001
2.796701e+003,2.245715e+001
2.797665e+003,1.877795e+001
2.798629e+003,1.835018e+001
2.799594e+003,2.104463e+001
2.800558e+003,2.426211e+001
2.801522e+003,2.713210e+001
2.802486e+003,2.867754e+001
2.803450e+003,2.799319e+001
2.804415e+003,2.505573e+001
2.805379e+003,2.079578e+001
2.806343e+003,2.050368e+001
2.807307e+003,2.440305e+001
2.808271e+003,2.503266e+001
2.809236e+003,2.177551e+001
2.810200e+003,2.272396e+001
2.811164e+003,2.787255e+001
2.812128e+003,2.747359e+001
2.813093e+003,2.099605e+001
2.814057e+003,2.189993e+001
2.815021e+003,2.915261e+001
2.815985e+003,2.958245e+001
2.816950e+003,2.579227e+001
2.817914e+003,2.580622e+001
2.818878e+003,2.801076e+001
2.819842e+003,2.706497e+001
2.820807e+003,2.392257e+001
2.821771e+003,2.161752e+001
2.822735e+003,2.002199e+001
2.823699e+003,1.923887e+001
2.824664e+003,2.029433e+001
2.825628e+003,2.149277e+001
2.826592e+003,2.315537e+001
2.827556e+003,2.452995e+001
2.828521e+003,2.448735e+001
2.829485e+003,2.370016e+001
2.830449e+003,2.312238e+001
2.831413e+003,2.293844e+001
2.832377e+003,2.279058e+001
2.833342e+003,2.386897e+001
2.834306e+003,2.611548e+001
2.835270e+003,2.624512e+001
2.836234e+003,2.313837e+001
2.837198e+003,2.106252e+001
2.838163e+003,2.077081e+001
2.839127e+003,2.093961e+001
2.840091e+003,2.150162e+001
2.841055e+003,2.360862e+001
2.842020e+003,2.650265e+001
2.842984e+003,2.707790e+001
2.843948e+003,2.555311e+001
2.844912e+003,2.406094e+001
2.845877e+003,2.322167e+001
2.846841e+003,2.257204e+001
2.847805e+003,2.196418e+001
2.848769e+003,2.050715e+001
2.849734e+003,1.648975e+001
2.850698e+003,1.660960e+001
2.851662e+003,2.137025e+001
2.852626e+003,2.351730e+001
2.853591e+003,2.295555e+001
2.854555e+003,2.187592e+001
2.855519e+003,2.062199e+001
2.856483e+003,1.928233e+001
2.857448e+003,1.793466e+001
2.858412e+003,1.742333e+001
2.859376e+003,1.866854e+001
2.860340e+003,1.934776e+001
2.861304e+003,1.800297e+001
2.862269e+003,1.902263e+001
2.863233e+003,2.206065e+001
2.864197e+003,2.398238e+001
2.865161e+003,2.515807e+001
2.866125e+003,2.343684e+001
2.867090e+003,1.910568e+001
2.868054e+003,1.740923e+001
2.869018e+003,1.920280e+001
2.869982e+003,2.021433e+001
2.870947e+003,2.012411e+001
2.871911e+003,2.180785e+001
2.872875e+003,2.515707e+001
2.873839e+003,2.514085e+001
2.874804e+003,2.190642e+001
2.875768e+003,2.033294e+001
2.876732e+003,2.074374e+001
2.877696e+003,2.107699e+001
2.878661e+003,2.070252e+001
2.879625e+003,1.868685e+001
2.880589e+003,1.547276e+001
2.881553e+003,1.580964e+001
2.882518e+003,2.172845e+001
2.883482e+003,2.540734e+001
2.884446e+003,2.627879e+001
2.885410e+003,2.651478e+001
2.886375e+003,2.612206e+001
2.887339e+003,2.520788e+001
2.888303e+003,2.418062e+001
2.889267e+003,2.444064e+001
2.890231e+003,2.583570e+001
2.891196e+003,2.686987e+001
2.892160e+003,2.736455e+001
2.893124e+003,2.907813e+001
2.894088e+003,3.259402e+001
2.895052e+003,3.249095e+001
2.896017e+003,2.824986e+001
2.896981e+003,2.839299e+001
2.897945e+003,3.236708e+001
2.898909e+003,3.520844e+001
2.899874e+003,3.644694e+001
2.900838e+003,3.650433e+001
2.901802e+003,3.588367e+001
2.902766e+003,3.547256e+001
2.903731e+003,3.546650e+001
2.904695e+003,3.580597e+001
2.905659e+003,3.645715e+001
2.906623e+003,3.906281e+001
2.907588e+003,4.340122e+001
2.908552e+003,4.572770e+001
2.909516e+003,4.624603e+001
2.910480e+003,4.527441e+001
2.911445e+003,4.403378e+001
2.912409e+003,4.553872e+001
2.913373e+003,4.877136e+001
2.914337e+003,4.946999e+001
2.915302e+003,4.804209e+001
2.916266e+003,4.890173e+001
2.917230e+003,5.180900e+001
2.918194e+003,5.393448e+001
2.919158e+003,5.540255e+001
2.920123e+003,5.659465e+001
2.921087e+003,5.769026e+001
2.922051e+003,5.959792e+001
2.923015e+003,6.125699e+001
2.923979e+003,5.980613e+001
2.924944e+003,5.697676e+001
2.925908e+003,5.725599e+001
2.926872e+003,5.985082e+001
2.927836e+003,6.224402e+001
2.928801e+003,6.459702e+001
2.929765e+003,6.797081e+001
2.930729e+003,7.153152e+001
2.931693e+003,7.388028e+001
2.932658e+003,7.491229e+001
2.933622e+003,7.306071e+001
2.934586e+003,7.119369e+001
2.935550e+003,7.464736e+001
2.936515e+003,7.958647e+001
2.937479e+003,8.065978e+001
2.938443e+003,7.935715e+001
2.939407e+003,7.836367e+001
2.940372e+003,7.835133e+001
2.941336e+003,8.238906e+001
2.942300e+003,8.651354e+001
2.943264e+003,8.437535e+001
2.944229e+003,8.129950e+001
2.945193e+003,8.339484e+001
2.946157e+003,8.640866e+001
2.947121e+003,8.654231e+001
2.948085e+003,8.585155e+001
2.949050e+003,8.663263e+001
2.950014e+003,8.851363e+001
2.950978e+003,9.220108e+001
2.951942e+003,9.482143e+001
2.952906e+003,9.090791e+001
2.953871e+003,8.752725e+001
2.954835e+003,9.077937e+001
2.955799e+003,9.514298e+001
2.956763e+003,9.839091e+001
2.957728e+003,9.935986e+001
2.958692e+003,9.716650e+001
2.959656e+003,9.444864e+001
2.960620e+003,9.336220e+001
2.961585e+003,9.412188e+001
2.962549e+003,9.847314e+001
2.963513e+003,1.023330e+002
2.964477e+003,1.035841e+002
2.965442e+003,1.035864e+002
2.966406e+003,1.020894e+002
2.967370e+003,1.020701e+002
2.968334e+003,1.045655e+002
2.969299e+003,1.065596e+002
2.970263e+003,1.066140e+002
2.971227e+003,1.066938e+002
2.972191e+003,1.081081e+002
2.973156e+003,1.089387e+002
2.974120e+003,1.067901e+002
2.975084e+003,1.070414e+002
2.976048e+003,1.114316e+002
2.977012e+003,1.131494e+002
2.977977e+003,1.112355e+002
2.978941e+003,1.103543e+002
2.979905e+003,1.114925e+002
2.980869e+003,1.121660e+002
2.981833e+003,1.117490e+002
2.982798e+003,1.130669e+002
2.983762e+003,1.177851e+002
2.984726e+003,1.193455e+002
2.985690e+003,1.163088e+002
2.986655e+003,1.162683e+002
2.987619e+003,1.191441e+002
2.988583e+003,1.204571e+002
2.989547e+003,1.201629e+002
2.990512e+003,1.204346e+002
2.991476e+003,1.212818e+002
2.992440e+003,1.206719e+002
2.993404e+003,1.189453e+002
2.994369e+003,1.211305e+002
2.995333e+003,1.269926e+002
2.996297e+003,1.287799e+002
2.997261e+003,1.273179e+002
2.998226e+003,1.275277e+002
2.999190e+003,1.287723e+002
3.000154e+003,1.294940e+002
3.001118e+003,1.295458e+002
3.002083e+003,1.282743e+002
3.003047e+003,1.269995e+002
3.004011e+003,1.285172e+002
3.004975e+003,1.312656e+002
3.005939e+003,1.315384e+002
3.006904e+003,1.301286e+002
3.007868e+003,1.274622e+002
3.008832e+003,1.263318e+002
3.009796e+003,1.337316e+002
3.010760e+003,1.416902e+002
3.011725e+003,1.409766e+002
3.012689e+003,1.377262e+002
3.013653e+003,1.368305e+002
3.014617e+003,1.370538e+002
3.015582e+003,1.371392e+002
3.016546e+003,1.378432e+002
3.017510e+003,1.406726e+002
3.018474e+003,1.435023e+002
3.019439e+003,1.441121e+002
3.020403e+003,1.443885e+002
3.021367e+003,1.442221e+002
3.022331e+003,1.463445e+002
3.023296e+003,1.522120e+002
3.024260e+003,1.568296e+002
3.025224e+003,1.577957e+002
3.026188e+003,1.567082e+002
3.027153e+003,1.544178e+002
3.028117e+003,1.525365e+002
3.029081e+003,1.516206e+002
3.030045e+003,1.522201e+002
3.031010e+003,1.552611e+002
3.031974e+003,1.565806e+002
3.032938e+003,1.556903e+002
3.033902e+003,1.568540e+002
3.034866e+003,1.603272e+002
3.035831e+003,1.617041e+002
3.036795e+003,1.603920e+002
3.037759e+003,1.615332e+002
3.038723e+003,1.668450e+002
3.039688e+003,1.678421e+002
3.040652e+003,1.634361e+002
3.041616e+003,1.612833e+002
3.042580e+003,1.614397e+002
3.043544e+003,1.650171e+002
3.044509e+003,1.702836e+002
3.045473e+003,1.732473e+002
3.046437e+003,1.740574e+002
3.047401e+003,1.740783e+002
3.048366e+003,1.737766e+002
3.049330e+003,1.737935e+002
3.050294e+003,1.742078e+002
3.051258e+003,1.753764e+002
3.052223e+003,1.771514e+002
3.053187e+003,1.797525e+002
3.054151e+003,1.821682e+002
3.055115e+003,1.830322e+002
3.056080e+003,1.831548e+002
3.057044e+003,1.835076e+002
3.058008e+003,1.832892e+002
3.058972e+003,1.815266e+002
3.059937e+003,1.803334e+002
3.060901e+003,1.824116e+002
3.061865e+003,1.858692e+002
3.062829e+003,1.894431e+002
3.063793e+003,1.924244e+002
3.064758e+003,1.951226e+002
3.065722e+003,1.954717e+002
3.066686e+003,1.922380e+002
3.067650e+003,1.904586e+002
3.068615e+003,1.919745e+002
3.069579e+003,1.934670e+002
3.070543e+003,1.932637e+002
3.071507e+003,1.933870e+002
3.072471e+003,1.949187e+002
3.073436e+003,1.967708e+002
3.074400e+003,1.995308e+002
3.075364e+003,1.990400e+002
3.076328e+003,1.953236e+002
3.077293e+003,1.948908e+002
3.078257e+003,1.977684e+002
3.079221e+003,1.999391e+002
3.080185e+003,2.007921e+002
3.081150e+003,2.022247e+002
3.082114e+003,2.041654e+002
3.083078e+003,2.029472e+002
3.084042e+003,1.990697e+002
3.085007e+003,2.007062e+002
3.085971e+003,2.053341e+002
3.086935e+003,2.049713e+002
3.087899e+003,2.027471e+002
3.088864e+003,2.050160e+002
3.089828e+003,2.084698e+002
3.090792e+003,2.073585e+002
3.091756e+003,2.051370e+002
3.092720e+003,2.065188e+002
3.093685e+003,2.092201e+002
3.094649e+003,2.095854e+002
3.095613e+003,2.087485e+002
3.096577e+003,2.059438e+002
3.097542e+003,2.052693e+002
3.098506e+003,2.122200e+002
3.099470e+003,2.169098e+002
3.100434e+003,2.155285e+002
3.101398e+003,2.153421e+002
3.102363e+003,2.198980e+002
3.103327e+003,2.215115e+002
3.104291e+003,2.144978e+002
3.105255e+003,2.106566e+002
3.106220e+003,2.198831e+002
3.107184e+003,2.233153e+002
3.108148e+003,2.189576e+002
3.109112e+003,2.159326e+002
3.110077e+003,2.155769e+002
3.111041e+003,2.195703e+002
3.112005e+003,2.261715e+002
3.112969e+003,2.285583e+002
3.113934e+003,2.259316e+002
3.114898e+003,2.233010e+002
3.115862e+003,2.211793e+002
3.116826e+003,2.220012e+002
3.117791e+003,2.251635e+002
3.118755e+003,2.284240e+002
3.119719e+003,2.312920e+002
3.120683e+003,2.332328e+002
3.121647e+003,2.341323e+002
3.122612e+003,2.330073e+002
3.123576e+003,2.318440e+002
3.124540e+003,2.326584e+002
3.125504e+003,2.342299e+002
3.126469e+003,2.347295e+002
3.127433e+003,2.352307e+002
3.128397e+003,2.377354e+002
3.129361e+003,2.396784e+002
3.130325e+003,2.381259e+002
3.131290e+003,2.381567e+002
3.132254e+003,2.415174e+002
3.133218e+003,2.442847e+002
3.134182e+003,2.449571e+002
3.135147e+003,2.450445e+002
3.136111e+003,2.452813e+002
3.137075e+003,2.455278e+002
3.138039e+003,2.452491e+002
3.139004e+003,2.470437e+002
3.139968e+003,2.514358e+002
3.140932e+003,2.516636e+002
3.141896e+003,2.484295e+002
3.142861e+003,2.469782e+002
3.143825e+003,2.476392e+002
3.144789e+003,2.492556e+002
3.145753e+003,2.512563e+002
3.146718e+003,2.526503e+002
3.147682e+003,2.536492e+002
3.148646e+003,2.551948e+002
3.149610e+003,2.568595e+002
3.150574e+003,2.570665e+002
3.151539e+003,2.571092e+002
3.152503e+003,2.593685e+002
3.153467e+003,2.611888e+002
3.154431e+003,2.600020e+002
3.155396e+003,2.585782e+002
3.156360e+003,2.586829e+002
3.157324e+003,2.603184e+002
3.158288e+003,2.638180e+002
3.159252e+003,2.667184e+002
3.160217e+003,2.668992e+002
3.161181e+003,2.664702e+002
3.162145e+003,2.653905e+002
3.163109e+003,2.657283e+002
3.164074e+003,2.677353e+002
3.165038e+003,2.709802e+002
3.166002e+003,2.746227e+002
3.166966e+003,2.754329e+002
3.167931e+003,2.730770e+002
3.168895e+003,2.720554e+002
3.169859e+003,2.727253e+002
3.170823e+003,2.739016e+002
3.171788e+003,2.755317e+002
3.172752e+003,2.777521e+002
3.173716e+003,2.797867e+002
3.174680e+003,2.800423e+002
3.175645e+003,2.792875e+002
3.176609e+003,2.779994e+002
3.177573e+003,2.775901e+002
3.178537e+003,2.797209e+002
3.179501e+003,2.818988e+002
3.180466e+003,2.801850e+002
3.181430e+003,2.783983e+002
3.182394e+003,2.809559e+002
3.183358e+003,2.837240e+002
3.184323e+003,2.852697e+002
3.185287e+003,2.856164e+002
3.186251e+003,2.847478e+002
3.187215e+003,2.848421e+002
3.188179e+003,2.863462e+002
3.189144e+003,2.863761e+002
3.190108e+003,2.838369e+002
3.191072e+003,2.835869e+002
3.192036e+003,2.871034e+002
3.193001e+003,2.861340e+002
3.193965e+003,2.817621e+002
3.194929e+003,2.828513e+002
3.195893e+003,2.869464e+002
3.196858e+003,2.868958e+002
3.197822e+003,2.849983e+002
3.198786e+003,2.874439e+002
3.199750e+003,2.912821e+002
3.200715e+003,2.920464e+002
3.201679e+003,2.914783e+002
3.202643e+003,2.929004e+002
3.203607e+003,2.944103e+002
3.204572e+003,2.932768e+002
3.205536e+003,2.929081e+002
3.206500e+003,2.951938e+002
3.207464e+003,2.977870e+002
3.208428e+003,2.999129e+002
3.209393e+003,3.000367e+002
3.210357e+003,2.977439e+002
3.211321e+003,2.963941e+002
3.212285e+003,2.977618e+002
3.213250e+003,2.975054e+002
3.214214e+003,2.945787e+002
3.215178e+003,2.965514e+002
3.216142e+003,3.020781e+002
3.217106e+003,3.039377e+002
3.218071e+003,3.028582e+002
3.219035e+003,3.012738e+002
3.219999e+003,3.002032e+002
3.220963e+003,3.004799e+002
3.221928e+003,3.021173e+002
3.222892e+003,3.056590e+002
3.223856e+003,3.093878e+002
3.224820e+003,3.100327e+002
3.225785e+003,3.100045e+002
3.226749e+003,3.121449e+002
3.227713e+003,3.122456e+002
3.228677e+003,3.081850e+002
3.229642e+003,3.064854e+002
3.230606e+003,3.094303e+002
3.231570e+003,3.118521e+002
3.232534e+003,3.113181e+002
3.233499e+003,3.117455e+002
3.234463e+003,3.150387e+002
3.235427e+003,3.169876e+002
3.236391e+003,3.175841e+002
3.237355e+003,3.155092e+002
3.238320e+003,3.126702e+002
3.239284e+003,3.154480e+002
3.240248e+003,3.209956e+002
3.241212e+003,3.222257e+002
3.242177e+003,3.209373e+002
3.243141e+003,3.199646e+002
3.244105e+003,3.197140e+002
3.245069e+003,3.213325e+002
3.246033e+003,3.234997e+002
3.246998e+003,3.247792e+002
3.247962e+003,3.264045e+002
3.248926e+003,3.296008e+002
3.249890e+003,3.306293e+002
3.250855e+003,3.284662e+002
3.251819e+003,3.265930e+002
3.252783e+003,3.265132e+002
3.253747e+003,3.281615e+002
3.254712e+003,3.318791e+002
3.255676e+003,3.343464e+002
3.256640e+003,3.353902e+002
3.257604e+003,3.365702e+002
3.258569e+003,3.376645e+002
3.259533e+003,3.375997e+002
3.260497e+003,3.370203e+002
3.261461e+003,3.371907e+002
3.262426e+003,3.376225e+002
3.263390e+003,3.373977e+002
3.264354e+003,3.376526e+002
3.265318e+003,3.400667e+002
3.266282e+003,3.436101e+002
3.267247e+003,3.493425e+002
3.268211e+003,3.520487e+002
3.269175e+003,3.478088e+002
3.270139e+003,3.452562e+002
3.271104e+003,3.461240e+002
3.272068e+003,3.486879e+002
3.273032e+003,3.520633e+002
3.273996e+003,3.551307e+002
3.274960e+003,3.574150e+002
3.275925e+003,3.573257e+002
3.276889e+003,3.549861e+002
3.277853e+003,3.553064e+002
3.278817e+003,3.570486e+002
3.279782e+003,3.563357e+002
3.280746e+003,3.550881e+002
3.281710e+003,3.564865e+002
3.282674e+003,3.587514e+002
3.283639e+003,3.603115e+002
3.284603e+003,3.613807e+002
3.285567e+003,3.621740e+002
3.286531e+003,3.624728e+002
3.287496e+003,3.608790e+002
3.288460e+003,3.612374e+002
3.289424e+003,3.656794e+002
3.290388e+003,3.666604e+002
3.291353e+003,3.639218e+002
3.292317e+003,3.652400e+002
3.293281e+003,3.703217e+002
3.294245e+003,3.720881e+002
3.295209e+003,3.700290e+002
3.296174e+003,3.693668e+002
3.297138e+003,3.698961e+002
3.298102e+003,3.706494e+002
3.299066e+003,3.714332e+002
3.300031e+003,3.712286e+002
3.300995e+003,3.716348e+002
3.301959e+003,3.755909e+002
3.302923e+003,3.782497e+002
3.303887e+003,3.774030e+002
3.304852e+003,3.760164e+002
3.305816e+003,3.758214e+002
3.306780e+003,3.763289e+002
3.307744e+003,3.772751e+002
3.308709e+003,3.793430e+002
3.309673e+003,3.829550e+002
3.310637e+003,3.828385e+002
3.311601e+003,3.801003e+002
3.312566e+003,3.806370e+002
3.313530e+003,3.831858e+002
3.314494e+003,3.839019e+002
3.315458e+003,3.825021e+002
3.316423e+003,3.785966e+002
3.317387e+003,3.755358e+002
3.318351e+003,3.806828e+002
3.319315e+003,3.873374e+002
3.320280e+003,3.884189e+002
3.321244e+003,3.889244e+002
3.322208e+003,3.906051e+002
3.323172e+003,3.925572e+002
3.324136e+003,3.945162e+002
3.325101e+003,3.965053e+002
3.326065e+003,3.984207e+002
3.327029e+003,3.994567e+002
3.327993e+003,3.994111e+002
3.328958e+003,3.995548e+002
3.329922e+003,3.996580e+002
3.330886e+003,3.965420e+002
3.331850e+003,3.934346e+002
3.332814e+003,3.974225e+002
3.333779e+003,4.029348e+002
3.334743e+003,4.040734e+002
3.335707e+003,4.045941e+002
3.336671e+003,4.072700e+002
3.337636e+003,4.097954e+002
3.338600e+003,4.104735e+002
3.339564e+003,4.096914e+002
3.340528e+003,4.051542e+002
3.341493e+003,4.066895e+002
3.342457e+003,4.141813e+002
3.343421e+003,4.144175e+002
3.344385e+003,4.091331e+002
3.345350e+003,4.083610e+002
3.346314e+003,4.127866e+002
3.347278e+003,4.201957e+002
3.348242e+003,4.270250e+002
3.349207e+003,4.247766e+002
3.350171e+003,4.189937e+002
3.351135e+003,4.163600e+002
3.352099e+003,4.172998e+002
3.353063e+003,4.257074e+002
3.354028e+003,4.291891e+002
3.354992e+003,4.246246e+002
3.355956e+003,4.245841e+002
3.356920e+003,4.323112e+002
3.357885e+003,4.353140e+002
3.358849e+003,4.293069e+002
3.359813e+003,4.295812e+002
3.360777e+003,4.360566e+002
3.361741e+003,4.372391e+002
3.362706e+003,4.351256e+002
3.363670e+003,4.322166e+002
3.364634e+003,4.307327e+002
3.365598e+003,4.335226e+002
3.366563e+003,4.373035e+002
3.367527e+003,4.399360e+002
3.368491e+003,4.416946e+002
3.369455e+003,4.430045e+002
3.370420e+003,4.424118e+002
3.371384e+003,4.360776e+002
3.372348e+003,4.354319e+002
3.373312e+003,4.406323e+002
3.374277e+003,4.451843e+002
3.375241e+003,4.480418e+002
3.376205e+003,4.481924e+002
3.377169e+003,4.470576e+002
3.378134e+003,4.481869e+002
3.379098e+003,4.501942e+002
3.380062e+003,4.503794e+002
3.381026e+003,4.496892e+002
3.381990e+003,4.489619e+002
3.382955e+003,4.486376e+002
3.383919e+003,4.488256e+002
3.384883e+003,4.502280e+002
3.385847e+003,4.528300e+002
3.386812e+003,4.523560e+002
3.387776e+003,4.487992e+002
3.388740e+003,4.508164e+002
3.389704e+003,4.596711e+002
3.390668e+003,4.610326e+002
3.391633e+003,4.565062e+002
3.392597e+003,4.550596e+002
3.393561e+003,4.556973e+002
3.394525e+003,4.590392e+002
3.395490e+003,4.603246e+002
3.396454e+003,4.553257e+002
3.397418e+003,4.528255e+002
3.398382e+003,4.576872e+002
3.399347e+003,4.635567e+002
3.400311e+003,4.669952e+002
3.401275e+003,4.684399e+002
3.402239e+003,4.679296e+002
3.403204e+003,4.660010e+002
3.404168e+003,4.634065e+002
3.405132e+003,4.634449e+002
3.406096e+003,4.653970e+002
3.407061e+003,4.676048e+002
3.408025e+003,4.703454e+002
3.408989e+003,4.747347e+002
3.409953e+003,4.765008e+002
3.410917e+003,4.682738e+002
3.411882e+003,4.616545e+002
3.412846e+003,4.678641e+002
3.413810e+003,4.718686e+002
3.414774e+003,4.714376e+002
3.415739e+003,4.716041e+002
3.416703e+003,4.727639e+002
3.417667e+003,4.721408e+002
3.418631e+003,4.704933e+002
3.419595e+003,4.724834e+002
3.420560e+003,4.762117e+002
3.421524e+003,4.760848e+002
3.422488e+003,4.745033e+002
3.423452e+003,4.755795e+002
3.424417e+003,4.766375e+002
3.425381e+003,4.759609e+002
3.426345e+003,4.751212e+002
3.427309e+003,4.745655e+002
3.428274e+003,4.741859e+002
3.429238e+003,4.741033e+002
3.430202e+003,4.758113e+002
3.431166e+003,4.795012e+002
3.432131e+003,4.820271e+002
3.433095e+003,4.831637e+002
3.434059e+003,4.798506e+002
3.435023e+003,4.767752e+002
3.435988e+003,4.816095e+002
3.436952e+003,4.880132e+002
3.437916e+003,4.920869e+002
3.438880e+003,4.948994e+002
3.439844e+003,4.970680e+002
3.440809e+003,4.961896e+002
3.441773e+003,4.889627e+002
3.442737e+003,4.882156e+002
3.443701e+003,4.945953e+002
3.444666e+003,4.944916e+002
3.445630e+003,4.913381e+002
3.446594e+003,4.979800e+002
3.447558e+003,5.062893e+002
3.448522e+003,5.025813e+002
3.449487e+003,4.960943e+002
3.450451e+003,4.957328e+002
3.451415e+003,4.978947e+002
3.452379e+003,4.996896e+002
3.453344e+003,5.019692e+002
3.454308e+003,5.053324e+002
3.455272e+003,5.069391e+002
3.456236e+003,5.070304e+002
3.457201e+003,5.081958e+002
3.458165e+003,5.105440e+002
3.459129e+003,5.141323e+002
3.460093e+003,5.169753e+002
3.461058e+003,5.156235e+002
3.462022e+003,5.123727e+002
3.462986e+003,5.095640e+002
3.463950e+003,5.087990e+002
3.464915e+003,5.133057e+002
3.465879e+003,5.154493e+002
3.466843e+003,5.142172e+002
3.467807e+003,5.155211e+002
3.468771e+003,5.202043e+002
3.469736e+003,5.262925e+002
3.470700e+003,5.319608e+002
3.471664e+003,5.313816e+002
3.472628e+003,5.275786e+002
3.473593e+003,5.305039e+002
3.474557e+003,5.349153e+002
3.475521e+003,5.342366e+002
3.476485e+003,5.347518e+002
3.477449e+003,5.391808e+002
3.478414e+003,5.398964e+002
3.479378e+003,5.350742e+002
3.480342e+003,5.335773e+002
3.481306e+003,5.382830e+002
3.482271e+003,5.397465e+002
3.483235e+003,5.384910e+002
3.484199e+003,5.444568e+002
3.485163e+003,5.521598e+002
3.486128e+003,5.514296e+002
3.487092e+003,5.494379e+002
3.488056e+003,5.516942e+002
3.489020e+003,5.543622e+002
3.489985e+003,5.554468e+002
3.490949e+003,5.563639e+002
3.491913e+003,5.578518e+002
3.492877e+003,5.592593e+002
3.493842e+003,5.605573e+002
3.494806e+003,5.596449e+002
3.495770e+003,5.581790e+002
3.496734e+003,5.608021e+002
3.497698e+003,5.649188e+002
3.498663e+003,5.677990e+002
3.499627e+003,5.680179e+002
3.500591e+003,0.000000e+000
