9.941663e+001,0.000000e+000
1.003809e+002,7.753394e+001
1.013451e+002,7.403320e+001
1.023093e+002,7.619800e+001
1.032736e+002,8.214966e+001
1.042378e+002,9.403247e+001
1.052020e+002,1.037217e+002
1.061663e+002,1.063311e+002
1.071305e+002,9.824585e+001
1.080947e+002,8.681885e+001
1.090590e+002,7.961621e+001
1.100232e+002,7.591040e+001
1.109874e+002,7.448218e+001
1.119517e+002,7.320996e+001
1.129159e+002,7.132031e+001
1.138801e+002,6.889087e+001
1.148444e+002,6.625122e+001
1.158086e+002,6.421558e+001
1.167728e+002,6.533618e+001
1.177371e+002,7.059375e+001
1.187013e+002,7.464868e+001
1.196655e+002,7.629688e+001
1.206298e+002,7.537256e+001
1.215940e+002,7.302612e+001
1.225582e+002,6.611230e+001
1.235225e+002,5.956445e+001
1.244867e+002,5.673755e+001
1.254509e+002,6.035059e+001
1.264152e+002,6.513989e+001
1.273794e+002,6.633472e+001
1.283436e+002,6.526343e+001
1.293079e+002,6.314453e+001
1.302721e+002,6.139478e+001
1.312363e+002,5.997070e+001
1.322006e+002,5.845972e+001
1.331648e+002,5.697974e+001
1.341290e+002,5.565771e+001
1.350933e+002,5.463184e+001
1.360575e+002,5.381689e+001
1.370217e+002,5.330493e+001
1.379860e+002,5.355591e+001
1.389502e+002,5.468213e+001
1.399144e+002,5.492212e+001
1.408787e+002,5.255347e+001
1.418429e+002,4.954907e+001
1.428071e+002,4.654761e+001
1.437714e+002,4.395850e+001
1.447356e+002,4.327905e+001
1.456998e+002,4.555615e+001
1.466641e+002,4.814917e+001
1.476283e+002,4.915405e+001
1.485925e+002,4.691162e+001
1.495568e+002,4.296387e+001
1.505210e+002,4.016675e+001
1.514852e+002,3.836133e+001
1.524495e+002,3.740308e+001
1.534137e+002,3.717627e+001
1.543779e+002,3.864063e+001
1.553422e+002,3.998511e+001
1.563064e+002,4.103223e+001
1.572706e+002,4.166016e+001
1.582349e+002,4.167212e+001
1.591991e+002,3.949023e+001
1.601633e+002,3.683472e+001
1.611276e+002,3.387329e+001
1.620918e+002,3.087671e+001
1.630560e+002,2.905713e+001
1.640203e+002,2.935791e+001
1.649845e+002,3.047998e+001
1.659487e+002,3.251245e+001
1.669130e+002,3.557617e+001
1.678772e+002,3.860303e+001
1.688414e+002,3.854785e+001
1.698057e+002,3.603491e+001
1.707699e+002,3.226440e+001
1.717341e+002,2.874902e+001
1.726984e+002,2.689551e+001
1.736626e+002,2.778247e+001
1.746268e+002,3.187598e+001
1.755911e+002,3.684448e+001
1.765553e+002,3.853198e+001
1.775195e+002,3.181152e+001
1.784838e+002,2.553247e+001
1.794480e+002,2.140137e+001
1.804122e+002,2.011401e+001
1.813765e+002,2.147729e+001
1.823407e+002,2.620020e+001
1.833049e+002,3.010840e+001
1.842692e+002,3.182861e+001
1.852334e+002,3.148560e+001
1.861976e+002,3.104004e+001
1.871619e+002,3.472241e+001
1.881261e+002,3.936499e+001
1.890903e+002,4.217603e+001
1.900546e+002,4.141821e+001
1.910188e+002,3.689502e+001
1.919830e+002,3.123315e+001
1.929473e+002,2.540381e+001
1.939115e+002,2.210303e+001
1.948757e+002,2.309326e+001
1.958400e+002,2.831982e+001
1.968042e+002,3.002173e+001
1.977684e+002,2.772290e+001
1.987327e+002,2.333691e+001
1.996969e+002,1.928955e+001
2.006611e+002,1.892065e+001
2.016254e+002,2.137085e+001
2.025896e+002,2.438794e+001
2.035538e+002,2.675586e+001
2.045181e+002,2.728271e+001
2.054823e+002,2.384961e+001
2.064465e+002,1.777954e+001
2.074108e+002,1.333057e+001
2.083750e+002,1.214746e+001
2.093392e+002,1.454565e+001
2.103035e+002,1.728394e+001
2.112677e+002,1.851343e+001
2.122319e+002,2.063599e+001
2.131962e+002,2.463770e+001
2.141604e+002,3.029712e+001
2.151246e+002,3.130322e+001
2.160889e+002,2.557129e+001
2.170531e+002,2.067065e+001
2.180173e+002,1.938477e+001
2.189816e+002,2.232324e+001
2.199458e+002,2.473999e+001
2.209100e+002,2.554053e+001
2.218743e+002,2.563403e+001
2.228385e+002,2.491138e+001
2.238027e+002,2.302271e+001
2.247670e+002,2.026099e+001
2.257312e+002,1.931714e+001
2.266954e+002,1.986353e+001
2.276597e+002,2.048340e+001
2.286239e+002,1.940698e+001
2.295881e+002,1.698120e+001
2.305524e+002,1.757495e+001
2.315166e+002,1.967603e+001
2.324808e+002,2.192358e+001
2.334451e+002,2.309082e+001
2.344093e+002,2.359619e+001
2.353735e+002,2.290186e+001
2.363378e+002,2.149561e+001
2.373020e+002,2.015210e+001
2.382662e+002,1.981348e+001
2.392305e+002,2.134131e+001
2.401947e+002,2.289844e+001
2.411589e+002,2.273145e+001
2.421232e+002,2.089600e+001
2.430874e+002,1.865747e+001
2.440516e+002,2.099756e+001
2.450159e+002,2.701196e+001
2.459801e+002,3.228052e+001
2.469443e+002,3.548682e+001
2.479086e+002,3.693066e+001
2.488728e+002,3.934277e+001
2.498370e+002,4.108667e+001
2.508013e+002,4.149292e+001
2.517655e+002,4.045459e+001
2.527297e+002,3.824170e+001
2.536940e+002,3.561841e+001
2.546582e+002,3.541479e+001
2.556224e+002,3.720898e+001
2.565867e+002,3.922852e+001
2.575509e+002,3.943555e+001
2.585151e+002,3.881006e+001
2.594794e+002,4.177759e+001
2.604436e+002,4.644336e+001
2.614078e+002,5.025098e+001
2.623721e+002,5.070776e+001
2.633363e+002,4.762842e+001
2.643005e+002,4.553906e+001
2.652648e+002,4.537402e+001
2.662290e+002,4.705737e+001
2.671932e+002,5.018628e+001
2.681575e+002,5.467529e+001
2.691217e+002,5.693140e+001
2.700859e+002,5.631592e+001
2.710502e+002,5.441919e+001
2.720144e+002,5.355811e+001
2.729786e+002,5.657178e+001
2.739429e+002,5.986621e+001
2.749071e+002,5.952100e+001
2.758713e+002,5.629224e+001
2.768356e+002,5.259277e+001
2.777998e+002,5.320776e+001
2.787640e+002,5.667090e+001
2.797283e+002,5.891504e+001
2.806925e+002,5.999805e+001
2.816567e+002,6.080176e+001
2.826210e+002,6.269678e+001
2.835852e+002,6.429663e+001
2.845494e+002,6.734448e+001
2.855137e+002,7.224927e+001
2.864779e+002,7.763672e+001
2.874421e+002,7.867407e+001
2.884064e+002,7.384717e+001
2.893706e+002,6.999487e+001
2.903348e+002,6.860962e+001
2.912991e+002,6.988159e+001
2.922633e+002,7.262402e+001
2.932275e+002,7.661597e+001
2.941918e+002,8.074365e+001
2.951560e+002,8.399219e+001
2.961202e+002,8.562573e+001
2.970845e+002,8.525781e+001
2.980487e+002,8.324048e+001
2.990129e+002,8.105884e+001
2.999772e+002,7.931909e+001
3.009414e+002,7.847583e+001
3.019056e+002,7.886328e+001
3.028699e+002,8.140894e+001
3.038341e+002,8.414526e+001
3.047983e+002,8.590576e+001
3.057626e+002,8.695093e+001
3.067268e+002,8.825293e+001
3.076910e+002,8.996558e+001
3.086553e+002,8.932690e+001
3.096195e+002,8.702368e+001
3.105837e+002,8.442163e+001
3.115480e+002,8.298804e+001
3.125122e+002,8.323999e+001
3.134764e+002,8.580005e+001
3.144407e+002,9.025635e+001
3.154049e+002,9.420850e+001
3.163691e+002,9.488721e+001
3.173334e+002,8.972437e+001
3.182976e+002,8.737207e+001
3.192618e+002,8.963916e+001
3.202261e+002,9.312866e+001
3.211903e+002,9.506274e+001
3.221545e+002,9.546729e+001
3.231188e+002,9.659839e+001
3.240830e+002,9.845264e+001
3.250472e+002,1.005496e+002
3.260115e+002,1.021772e+002
3.269757e+002,1.024377e+002
3.279399e+002,1.020640e+002
3.289042e+002,1.037400e+002
3.298684e+002,1.061895e+002
3.308326e+002,1.075798e+002
3.317969e+002,1.059517e+002
3.327611e+002,1.028096e+002
3.337253e+002,1.026707e+002
3.346896e+002,1.046672e+002
3.356538e+002,1.068826e+002
3.366180e+002,1.069084e+002
3.375823e+002,1.020688e+002
3.385465e+002,1.006384e+002
3.395107e+002,1.061104e+002
3.404750e+002,1.147310e+002
3.414392e+002,1.217588e+002
3.424034e+002,1.254307e+002
3.433677e+002,1.258867e+002
3.443319e+002,1.213286e+002
3.452961e+002,1.145234e+002
3.462604e+002,1.089124e+002
3.472246e+002,1.079761e+002
3.481888e+002,1.111028e+002
3.491531e+002,1.160215e+002
3.501173e+002,1.219846e+002
3.510815e+002,1.274038e+002
3.520458e+002,1.299136e+002
3.530100e+002,1.267964e+002
3.539742e+002,1.243535e+002
3.549385e+002,1.244307e+002
3.559027e+002,1.262588e+002
3.568669e+002,1.280066e+002
3.578312e+002,1.302585e+002
3.587954e+002,1.352170e+002
3.597596e+002,1.412153e+002
3.607239e+002,1.455493e+002
3.616881e+002,1.455996e+002
3.626523e+002,1.397002e+002
3.636166e+002,1.350034e+002
3.645808e+002,1.365598e+002
3.655450e+002,1.420215e+002
3.665093e+002,1.470686e+002
3.674735e+002,1.461909e+002
3.684377e+002,1.401287e+002
3.694020e+002,1.379265e+002
3.703662e+002,1.399866e+002
3.713304e+002,1.440947e+002
3.722947e+002,1.463049e+002
3.732589e+002,1.439575e+002
3.742231e+002,1.419834e+002
3.751874e+002,1.415552e+002
3.761516e+002,1.424851e+002
3.771158e+002,1.442239e+002
3.780801e+002,1.467705e+002
3.790443e+002,1.484968e+002
3.800085e+002,1.486160e+002
3.809728e+002,1.477146e+002
3.819370e+002,1.467957e+002
3.829012e+002,1.471348e+002
3.838655e+002,1.484231e+002
3.848297e+002,1.479482e+002
3.857939e+002,1.455017e+002
3.867582e+002,1.424053e+002
3.877224e+002,1.411123e+002
3.886866e+002,1.446912e+002
3.896509e+002,1.497610e+002
3.906151e+002,1.558972e+002
3.915793e+002,1.611545e+002
3.925436e+002,1.629539e+002
3.935078e+002,1.576665e+002
3.944720e+002,1.517751e+002
3.954363e+002,1.484224e+002
3.964005e+002,1.483655e+002
3.973647e+002,1.516082e+002
3.983290e+002,1.574207e+002
3.992932e+002,1.614028e+002
4.002574e+002,1.622632e+002
4.012217e+002,1.607197e+002
4.021859e+002,1.577607e+002
4.031501e+002,1.545674e+002
4.041144e+002,1.530327e+002
4.050786e+002,1.546069e+002
4.060428e+002,1.589072e+002
4.070071e+002,1.645164e+002
4.079713e+002,1.698291e+002
4.089355e+002,1.736296e+002
4.098998e+002,1.749004e+002
4.108640e+002,1.744063e+002
4.118282e+002,1.731511e+002
4.127925e+002,1.712065e+002
4.137567e+002,1.677710e+002
4.147209e+002,1.646624e+002
4.156852e+002,1.634946e+002
4.166494e+002,1.638286e+002
4.176136e+002,1.665737e+002
4.185779e+002,1.727976e+002
4.195421e+002,1.826221e+002
4.205063e+002,1.905173e+002
4.214706e+002,1.941990e+002
4.224348e+002,1.944355e+002
4.233990e+002,1.921821e+002
4.243633e+002,1.879336e+002
4.253275e+002,1.816533e+002
4.262917e+002,1.756182e+002
4.272560e+002,1.724941e+002
4.282202e+002,1.726650e+002
4.291844e+002,1.750820e+002
4.301487e+002,1.783875e+002
4.311129e+002,1.846201e+002
4.320771e+002,1.894414e+002
4.330414e+002,1.900181e+002
4.340056e+002,1.861387e+002
4.349698e+002,1.815071e+002
4.359341e+002,1.814438e+002
4.368983e+002,1.839153e+002
4.378625e+002,1.877141e+002
4.388268e+002,1.920559e+002
4.397910e+002,1.963794e+002
4.407552e+002,1.991887e+002
4.417195e+002,1.991328e+002
4.426837e+002,1.970989e+002
4.436479e+002,1.936885e+002
4.446122e+002,1.901367e+002
4.455764e+002,1.888184e+002
4.465406e+002,1.905754e+002
4.475049e+002,1.949895e+002
4.484691e+002,2.035356e+002
4.494333e+002,2.134690e+002
4.503976e+002,2.189097e+002
4.513618e+002,2.121960e+002
4.523260e+002,2.031958e+002
4.532903e+002,1.981304e+002
4.542545e+002,1.965452e+002
4.552188e+002,1.964001e+002
4.561830e+002,1.955803e+002
4.571472e+002,1.964294e+002
4.581115e+002,1.987651e+002
4.590757e+002,2.018516e+002
4.600399e+002,2.059600e+002
4.610042e+002,2.121230e+002
4.619684e+002,2.222725e+002
4.629326e+002,2.261775e+002
4.638969e+002,2.212686e+002
4.648611e+002,2.131765e+002
4.658253e+002,2.078416e+002
4.667896e+002,2.084673e+002
4.677538e+002,2.088923e+002
4.687180e+002,2.064788e+002
4.696823e+002,2.043821e+002
4.706465e+002,2.050435e+002
4.716107e+002,2.094114e+002
4.725750e+002,2.145083e+002
4.735392e+002,2.137600e+002
4.745034e+002,2.089189e+002
4.754677e+002,2.047146e+002
4.764319e+002,2.046626e+002
4.773961e+002,2.095593e+002
4.783604e+002,2.139055e+002
4.793246e+002,2.171438e+002
4.802888e+002,2.192395e+002
4.812531e+002,2.207466e+002
4.822173e+002,2.217024e+002
4.831815e+002,2.199602e+002
4.841458e+002,2.129807e+002
4.851100e+002,2.057578e+002
4.860742e+002,1.987954e+002
4.870385e+002,1.929382e+002
4.880027e+002,1.896799e+002
4.889669e+002,1.932341e+002
4.899312e+002,2.007224e+002
4.908954e+002,2.070776e+002
4.918596e+002,2.102698e+002
4.928239e+002,2.097236e+002
4.937881e+002,2.061616e+002
4.947523e+002,1.988357e+002
4.957166e+002,1.929514e+002
4.966808e+002,1.915767e+002
4.976450e+002,1.939651e+002
4.986093e+002,1.969854e+002
4.995735e+002,1.965452e+002
5.005377e+002,1.955063e+002
5.015020e+002,1.959548e+002
5.024662e+002,1.966858e+002
5.034304e+002,1.968535e+002
5.043947e+002,1.965928e+002
5.053589e+002,1.977771e+002
5.063231e+002,2.004939e+002
5.072874e+002,2.037297e+002
5.082516e+002,2.068352e+002
5.092158e+002,2.095195e+002
5.101801e+002,2.120325e+002
5.111443e+002,2.148076e+002
5.121085e+002,2.176804e+002
5.130728e+002,2.188716e+002
5.140370e+002,2.163354e+002
5.150012e+002,2.098699e+002
5.159655e+002,2.064268e+002
5.169297e+002,2.092212e+002
5.178939e+002,2.134622e+002
5.188582e+002,2.188264e+002
5.198224e+002,2.248979e+002
5.207866e+002,2.307012e+002
5.217509e+002,2.348755e+002
5.227151e+002,2.377727e+002
5.236793e+002,2.387915e+002
5.246436e+002,2.384155e+002
5.256078e+002,2.383030e+002
5.265720e+002,2.412834e+002
5.275363e+002,2.486348e+002
5.285005e+002,2.548962e+002
5.294647e+002,2.597888e+002
5.304290e+002,2.634109e+002
5.313932e+002,2.656216e+002
5.323574e+002,2.648118e+002
5.333217e+002,2.660725e+002
5.342859e+002,2.690901e+002
5.352501e+002,2.732019e+002
5.362144e+002,2.795776e+002
5.371786e+002,2.895757e+002
5.381428e+002,2.994224e+002
5.391071e+002,3.036006e+002
5.400713e+002,3.053896e+002
5.410355e+002,3.067969e+002
5.419998e+002,3.085356e+002
5.429640e+002,3.100164e+002
5.439282e+002,3.114099e+002
5.448925e+002,3.150862e+002
5.458567e+002,3.204978e+002
5.468209e+002,3.266797e+002
5.477852e+002,3.326970e+002
5.487494e+002,3.380420e+002
5.497136e+002,3.425710e+002
5.506779e+002,3.435471e+002
5.516421e+002,3.401375e+002
5.526063e+002,3.348945e+002
5.535706e+002,3.311450e+002
5.545348e+002,3.306096e+002
5.554990e+002,3.338320e+002
5.564633e+002,3.409917e+002
5.574275e+002,3.488032e+002
5.583917e+002,3.536194e+002
5.593560e+002,3.531655e+002
5.603202e+002,3.494033e+002
5.612844e+002,3.491489e+002
5.622487e+002,3.512083e+002
5.632129e+002,3.516775e+002
5.641771e+002,3.478118e+002
5.651414e+002,3.394629e+002
5.661056e+002,3.332620e+002
5.670698e+002,3.322126e+002
5.680341e+002,3.329236e+002
5.689983e+002,3.340857e+002
5.699625e+002,3.343667e+002
5.709268e+002,3.324634e+002
5.718910e+002,3.278379e+002
5.728552e+002,3.222561e+002
5.738195e+002,3.166252e+002
5.747837e+002,3.123306e+002
5.757479e+002,3.107000e+002
5.767122e+002,3.124783e+002
5.776764e+002,3.155869e+002
5.786406e+002,3.157146e+002
5.796049e+002,3.131160e+002
5.805691e+002,3.088918e+002
5.815333e+002,3.037688e+002
5.824976e+002,2.976589e+002
5.834618e+002,2.955957e+002
5.844260e+002,2.993647e+002
5.853903e+002,3.034456e+002
5.863545e+002,3.045027e+002
5.873187e+002,3.014626e+002
5.882830e+002,2.962712e+002
5.892472e+002,2.944561e+002
5.902114e+002,2.932449e+002
5.911757e+002,2.896602e+002
5.921399e+002,2.846191e+002
5.931041e+002,2.804614e+002
5.940684e+002,2.790181e+002
5.950326e+002,2.764192e+002
5.959968e+002,2.711882e+002
5.969611e+002,2.655835e+002
5.979253e+002,2.609863e+002
5.988895e+002,2.579683e+002
5.998538e+002,2.562871e+002
6.008180e+002,2.559646e+002
6.017822e+002,2.567422e+002
6.027465e+002,2.571721e+002
6.037107e+002,2.572598e+002
6.046749e+002,2.575781e+002
6.056392e+002,2.583169e+002
6.066034e+002,2.576589e+002
6.075676e+002,2.549399e+002
6.085319e+002,2.494973e+002
6.094961e+002,2.423499e+002
6.104603e+002,2.357581e+002
6.114246e+002,2.330251e+002
6.123888e+002,2.327354e+002
6.133530e+002,2.288572e+002
6.143173e+002,2.218750e+002
6.152815e+002,2.143635e+002
6.162457e+002,2.090557e+002
6.172100e+002,2.066843e+002
6.181742e+002,2.062202e+002
6.191384e+002,2.058091e+002
6.201027e+002,2.051169e+002
6.210669e+002,2.048677e+002
6.220311e+002,2.053923e+002
6.229954e+002,2.049036e+002
6.239596e+002,1.993269e+002
6.249238e+002,1.920027e+002
6.258881e+002,1.857981e+002
6.268523e+002,1.820710e+002
6.278165e+002,1.808076e+002
6.287808e+002,1.808743e+002
6.297450e+002,1.817729e+002
6.307092e+002,1.837683e+002
6.316735e+002,1.866084e+002
6.326377e+002,1.882356e+002
6.336019e+002,1.867803e+002
6.345662e+002,1.825842e+002
6.355304e+002,1.784763e+002
6.364946e+002,1.721382e+002
6.374589e+002,1.670688e+002
6.384231e+002,1.659487e+002
6.393873e+002,1.686870e+002
6.403516e+002,1.710491e+002
6.413158e+002,1.687813e+002
6.422800e+002,1.634739e+002
6.432443e+002,1.564685e+002
6.442085e+002,1.492424e+002
6.451727e+002,1.433059e+002
6.461370e+002,1.398108e+002
6.471012e+002,1.383132e+002
6.480654e+002,1.380742e+002
6.490297e+002,1.407332e+002
6.499939e+002,1.436865e+002
6.509581e+002,1.433782e+002
6.519224e+002,1.379353e+002
6.528866e+002,1.350859e+002
6.538508e+002,1.369026e+002
6.548151e+002,1.374136e+002
6.557793e+002,1.347751e+002
6.567435e+002,1.297410e+002
6.577078e+002,1.247756e+002
6.586720e+002,1.210227e+002
6.596362e+002,1.177407e+002
6.606005e+002,1.155386e+002
6.615647e+002,1.152305e+002
6.625289e+002,1.164390e+002
6.634932e+002,1.175356e+002
6.644574e+002,1.159788e+002
6.654216e+002,1.142371e+002
6.663859e+002,1.138140e+002
6.673501e+002,1.126487e+002
6.683143e+002,1.111304e+002
6.692786e+002,1.107261e+002
6.702428e+002,1.099590e+002
6.712070e+002,1.032075e+002
6.721713e+002,9.790088e+001
6.731355e+002,9.527466e+001
6.740997e+002,9.464526e+001
6.750640e+002,9.565503e+001
6.760282e+002,1.005898e+002
6.769924e+002,1.052141e+002
6.779567e+002,1.017617e+002
6.789209e+002,9.332422e+001
6.798851e+002,8.654150e+001
6.808494e+002,8.583691e+001
6.818136e+002,8.923291e+001
6.827778e+002,8.514575e+001
6.837421e+002,7.267163e+001
6.847063e+002,6.391284e+001
6.856705e+002,6.278833e+001
6.866348e+002,6.717480e+001
6.875990e+002,7.090576e+001
6.885632e+002,7.055811e+001
6.895275e+002,6.752612e+001
6.904917e+002,6.584766e+001
6.914559e+002,6.650195e+001
6.924202e+002,6.901367e+001
6.933844e+002,7.200586e+001
6.943486e+002,7.379614e+001
6.953129e+002,7.114844e+001
6.962771e+002,6.481616e+001
6.972413e+002,5.811230e+001
6.982056e+002,5.361719e+001
6.991698e+002,5.256787e+001
7.001340e+002,5.465869e+001
7.010983e+002,6.278735e+001
7.020625e+002,6.690552e+001
7.030267e+002,6.316455e+001
7.039910e+002,5.550684e+001
7.049552e+002,4.960718e+001
7.059194e+002,4.850952e+001
7.068837e+002,4.818896e+001
7.078479e+002,4.433496e+001
7.088121e+002,4.048389e+001
7.097764e+002,3.898950e+001
7.107406e+002,3.989185e+001
7.117048e+002,4.125317e+001
7.126691e+002,4.115723e+001
7.136333e+002,4.015625e+001
7.145975e+002,3.861841e+001
7.155618e+002,3.681616e+001
7.165260e+002,3.538940e+001
7.174902e+002,3.470313e+001
7.184545e+002,3.411841e+001
7.194187e+002,3.395801e+001
7.203829e+002,3.514966e+001
7.213472e+002,3.651050e+001
7.223114e+002,3.775171e+001
7.232756e+002,3.858838e+001
7.242399e+002,3.826392e+001
7.252041e+002,3.513867e+001
7.261683e+002,3.150659e+001
7.271326e+002,2.947095e+001
7.280968e+002,2.955176e+001
7.290610e+002,3.136182e+001
7.300253e+002,3.384937e+001
7.309895e+002,3.540088e+001
7.319537e+002,3.534497e+001
7.329180e+002,3.511108e+001
7.338822e+002,3.335181e+001
7.348464e+002,2.982104e+001
7.358107e+002,2.582813e+001
7.367749e+002,2.391064e+001
7.377391e+002,2.294702e+001
7.387034e+002,2.363135e+001
7.396676e+002,2.613574e+001
7.406318e+002,2.900854e+001
7.415961e+002,3.143774e+001
7.425603e+002,3.358350e+001
7.435245e+002,3.541431e+001
7.444888e+002,3.568652e+001
7.454530e+002,3.524487e+001
7.464172e+002,3.476660e+001
7.473815e+002,3.444482e+001
7.483457e+002,3.491919e+001
7.493099e+002,3.812720e+001
7.502742e+002,4.682471e+001
7.512384e+002,5.120044e+001
7.522026e+002,4.858423e+001
7.531669e+002,4.438354e+001
7.541311e+002,4.300049e+001
7.550953e+002,4.489478e+001
7.560596e+002,4.826831e+001
7.570238e+002,5.470020e+001
7.579880e+002,5.970264e+001
7.589523e+002,6.049878e+001
7.599165e+002,5.785107e+001
7.608807e+002,5.461719e+001
7.618450e+002,5.359985e+001
7.628092e+002,5.451514e+001
7.637734e+002,5.444604e+001
7.647377e+002,5.331494e+001
7.657019e+002,5.288208e+001
7.666661e+002,5.413354e+001
7.676304e+002,5.648584e+001
7.685946e+002,5.798657e+001
7.695588e+002,6.143945e+001
7.705231e+002,6.412158e+001
7.714873e+002,6.412891e+001
7.724515e+002,6.250317e+001
7.734158e+002,6.100366e+001
7.743800e+002,6.015723e+001
7.753442e+002,5.987500e+001
7.763085e+002,6.173560e+001
7.772727e+002,6.536157e+001
7.782369e+002,6.948047e+001
7.792012e+002,7.243286e+001
7.801654e+002,7.254077e+001
7.811296e+002,6.844849e+001
7.820939e+002,6.062549e+001
7.830581e+002,5.504810e+001
7.840223e+002,5.233984e+001
7.849866e+002,5.277710e+001
7.859508e+002,5.639526e+001
7.869150e+002,6.236548e+001
7.878793e+002,6.547729e+001
7.888435e+002,6.542310e+001
7.898077e+002,6.377563e+001
7.907720e+002,6.082129e+001
7.917362e+002,5.812280e+001
7.927004e+002,5.748535e+001
7.936647e+002,5.943750e+001
7.946289e+002,6.144751e+001
7.955931e+002,6.073511e+001
7.965574e+002,5.782007e+001
7.975216e+002,5.512988e+001
7.984858e+002,5.538916e+001
7.994501e+002,5.943726e+001
8.004143e+002,6.344458e+001
8.013785e+002,6.360767e+001
8.023428e+002,6.383960e+001
8.033070e+002,6.387207e+001
8.042712e+002,6.364453e+001
8.052355e+002,6.345117e+001
8.061997e+002,6.352124e+001
8.071639e+002,6.211938e+001
8.081282e+002,5.866772e+001
8.090924e+002,5.466431e+001
8.100566e+002,5.013428e+001
8.110209e+002,4.610669e+001
8.119851e+002,4.435571e+001
8.129493e+002,4.645581e+001
8.139136e+002,5.067896e+001
8.148778e+002,5.333594e+001
8.158420e+002,5.629248e+001
8.168063e+002,5.789624e+001
8.177705e+002,5.632666e+001
8.187347e+002,5.176636e+001
8.196990e+002,4.769727e+001
8.206632e+002,4.254395e+001
8.216274e+002,3.819995e+001
8.225917e+002,3.851392e+001
8.235559e+002,4.206567e+001
8.245201e+002,4.578882e+001
8.254844e+002,4.703027e+001
8.264486e+002,4.508447e+001
8.274128e+002,3.921265e+001
8.283771e+002,3.274780e+001
8.293413e+002,2.867847e+001
8.303055e+002,2.730884e+001
8.312698e+002,2.745459e+001
8.322340e+002,2.775220e+001
8.331982e+002,2.820044e+001
8.341625e+002,2.667236e+001
8.351267e+002,2.486206e+001
8.360909e+002,2.350806e+001
8.370552e+002,2.112964e+001
8.380194e+002,1.713916e+001
8.389836e+002,1.356445e+001
8.399479e+002,1.367236e+001
8.409121e+002,1.522681e+001
8.418763e+002,1.520386e+001
8.428406e+002,1.351270e+001
8.438048e+002,1.092822e+001
8.447690e+002,8.562500e+000
8.457333e+002,7.576172e+000
8.466975e+002,9.579346e+000
8.476617e+002,1.504077e+001
8.486260e+002,2.015894e+001
8.495902e+002,2.270435e+001
8.505544e+002,2.264453e+001
8.515187e+002,2.105566e+001
8.524829e+002,1.872388e+001
8.534471e+002,1.559009e+001
8.544114e+002,1.140381e+001
8.553756e+002,8.405029e+000
8.563398e+002,7.811523e+000
8.573041e+002,8.945801e+000
8.582683e+002,9.743896e+000
8.592325e+002,8.047852e+000
8.601968e+002,6.083496e+000
8.611610e+002,1.046533e+001
8.621252e+002,1.878955e+001
8.630895e+002,2.405908e+001
8.640537e+002,2.333472e+001
8.650179e+002,1.892236e+001
8.659822e+002,1.541382e+001
8.669464e+002,7.062988e+000
8.679106e+002,3.842529e+000
8.688749e+002,1.049292e+001
8.698391e+002,1.702026e+001
8.708033e+002,1.698926e+001
8.717676e+002,1.187402e+001
8.727318e+002,9.585449e+000
8.736960e+002,1.417163e+001
8.746603e+002,1.935864e+001
8.756245e+002,1.955078e+001
8.765887e+002,1.522095e+001
8.775530e+002,1.021729e+001
8.785172e+002,8.562988e+000
8.794814e+002,1.111255e+001
8.804457e+002,1.381152e+001
8.814099e+002,1.507300e+001
8.823741e+002,1.621411e+001
8.833384e+002,1.632764e+001
8.843026e+002,1.492725e+001
8.852668e+002,1.255371e+001
8.862311e+002,1.043921e+001
8.871953e+002,8.321533e+000
8.881595e+002,6.499268e+000
8.891238e+002,6.259033e+000
8.900880e+002,7.842285e+000
8.910522e+002,1.026660e+001
8.920165e+002,1.181348e+001
8.929807e+002,1.105981e+001
8.939449e+002,8.896240e+000
8.949092e+002,8.850830e+000
8.958734e+002,1.075415e+001
8.968376e+002,1.261694e+001
8.978019e+002,1.280688e+001
8.987661e+002,1.161938e+001
8.997303e+002,1.135547e+001
9.006946e+002,1.359937e+001
9.016588e+002,1.495898e+001
9.026230e+002,1.656079e+001
9.035873e+002,1.881787e+001
9.045515e+002,2.128247e+001
9.055157e+002,2.365332e+001
9.064800e+002,2.602930e+001
9.074442e+002,2.805029e+001
9.084084e+002,2.961816e+001
9.093727e+002,3.143726e+001
9.103369e+002,3.306494e+001
9.113011e+002,3.365723e+001
9.122654e+002,3.263818e+001
9.132296e+002,3.060083e+001
9.141938e+002,3.034326e+001
9.151581e+002,3.597852e+001
9.161223e+002,3.954468e+001
9.170865e+002,3.975415e+001
9.180508e+002,3.959277e+001
9.190150e+002,4.030200e+001
9.199792e+002,4.131104e+001
9.209435e+002,4.290674e+001
9.219077e+002,4.626733e+001
9.228719e+002,4.847949e+001
9.238362e+002,4.988550e+001
9.248004e+002,5.171240e+001
9.257646e+002,5.410303e+001
9.267289e+002,5.636304e+001
9.276931e+002,5.789966e+001
9.286573e+002,5.901343e+001
9.296216e+002,5.827222e+001
9.305858e+002,5.718115e+001
9.315500e+002,5.772583e+001
9.325143e+002,5.912891e+001
9.334785e+002,6.008081e+001
9.344427e+002,6.045654e+001
9.354070e+002,6.118506e+001
9.363712e+002,5.934937e+001
9.373354e+002,5.983130e+001
9.382997e+002,6.835645e+001
9.392639e+002,8.097461e+001
9.402281e+002,8.988525e+001
9.411924e+002,9.008887e+001
9.421566e+002,8.499536e+001
9.431208e+002,8.270386e+001
9.440851e+002,8.192700e+001
9.450493e+002,8.107056e+001
9.460135e+002,8.155176e+001
9.469778e+002,8.342529e+001
9.479420e+002,8.566455e+001
9.489063e+002,8.762915e+001
9.498705e+002,9.000659e+001
9.508347e+002,9.396729e+001
9.517990e+002,9.697144e+001
9.527632e+002,9.805518e+001
9.537274e+002,9.728833e+001
9.546917e+002,9.417407e+001
9.556559e+002,8.857861e+001
9.566201e+002,8.434131e+001
9.575844e+002,8.978174e+001
9.585486e+002,9.916211e+001
9.595128e+002,1.029631e+002
9.604771e+002,1.003779e+002
9.614413e+002,9.647510e+001
9.624055e+002,9.656470e+001
9.633698e+002,1.007544e+002
9.643340e+002,1.034077e+002
9.652982e+002,1.006350e+002
9.662625e+002,9.618652e+001
9.672267e+002,9.369946e+001
9.681909e+002,9.471411e+001
9.691552e+002,9.821338e+001
9.701194e+002,1.015034e+002
9.710836e+002,1.025901e+002
9.720479e+002,1.010144e+002
9.730121e+002,9.773096e+001
9.739763e+002,9.496411e+001
9.749406e+002,9.470361e+001
9.759048e+002,9.688623e+001
9.768690e+002,9.995874e+001
9.778333e+002,1.027031e+002
9.787975e+002,1.069478e+002
9.797617e+002,1.129973e+002
9.807260e+002,1.160073e+002
9.816902e+002,1.173276e+002
9.826544e+002,1.188013e+002
9.836187e+002,1.204941e+002
9.845829e+002,1.216064e+002
9.855471e+002,1.237917e+002
9.865114e+002,1.276782e+002
9.874756e+002,1.310588e+002
9.884398e+002,1.347927e+002
9.894041e+002,1.386882e+002
9.903683e+002,1.409287e+002
9.913325e+002,1.399707e+002
9.922968e+002,1.365513e+002
9.932610e+002,1.345837e+002
9.942252e+002,1.365950e+002
9.951895e+002,1.395964e+002
9.961537e+002,1.424343e+002
9.971179e+002,1.443438e+002
9.980822e+002,1.453289e+002
9.990464e+002,1.463027e+002
1.000011e+003,1.485967e+002
1.000975e+003,1.517273e+002
1.001939e+003,1.528113e+002
1.002903e+003,1.509602e+002
1.003868e+003,1.472434e+002
1.004832e+003,1.435989e+002
1.005796e+003,1.417832e+002
1.006760e+003,1.425068e+002
1.007724e+003,1.450059e+002
1.008689e+003,1.479741e+002
1.009653e+003,1.499666e+002
1.010617e+003,1.495334e+002
1.011581e+003,1.477268e+002
1.012546e+003,1.460212e+002
1.013510e+003,1.454072e+002
1.014474e+003,1.462324e+002
1.015438e+003,1.487991e+002
1.016403e+003,1.526565e+002
1.017367e+003,1.560627e+002
1.018331e+003,1.581389e+002
1.019295e+003,1.595039e+002
1.020260e+003,1.611121e+002
1.021224e+003,1.634150e+002
1.022188e+003,1.661194e+002
1.023152e+003,1.690837e+002
1.024116e+003,1.723906e+002
1.025081e+003,1.752710e+002
1.026045e+003,1.791052e+002
1.027009e+003,1.858687e+002
1.027973e+003,1.933320e+002
1.028938e+003,1.976523e+002
1.029902e+003,1.988396e+002
1.030866e+003,1.996746e+002
1.031830e+003,1.999963e+002
1.032795e+003,2.013218e+002
1.033759e+003,2.034707e+002
1.034723e+003,2.056526e+002
1.035687e+003,2.073962e+002
1.036651e+003,2.091125e+002
1.037616e+003,2.121472e+002
1.038580e+003,2.177781e+002
1.039544e+003,2.240764e+002
1.040508e+003,2.293418e+002
1.041473e+003,2.353159e+002
1.042437e+003,2.415105e+002
1.043401e+003,2.465693e+002
1.044365e+003,2.500422e+002
1.045330e+003,2.530229e+002
1.046294e+003,2.537231e+002
1.047258e+003,2.526741e+002
1.048222e+003,2.501663e+002
1.049187e+003,2.490842e+002
1.050151e+003,2.526956e+002
1.051115e+003,2.606677e+002
1.052079e+003,2.690366e+002
1.053043e+003,2.744131e+002
1.054008e+003,2.792700e+002
1.054972e+003,2.863894e+002
1.055936e+003,2.919817e+002
1.056900e+003,2.944788e+002
1.057865e+003,2.954534e+002
1.058829e+003,2.966868e+002
1.059793e+003,2.985588e+002
1.060757e+003,3.009778e+002
1.061722e+003,3.064883e+002
1.062686e+003,3.127607e+002
1.063650e+003,3.193042e+002
1.064614e+003,3.273298e+002
1.065578e+003,3.352881e+002
1.066543e+003,3.417788e+002
1.067507e+003,3.472827e+002
1.068471e+003,3.527712e+002
1.069435e+003,3.560667e+002
1.070400e+003,3.567554e+002
1.071364e+003,3.592246e+002
1.072328e+003,3.633306e+002
1.073292e+003,3.664460e+002
1.074257e+003,3.674578e+002
1.075221e+003,3.681316e+002
1.076185e+003,3.713296e+002
1.077149e+003,3.769690e+002
1.078114e+003,3.843083e+002
1.079078e+003,3.957981e+002
1.080042e+003,4.067576e+002
1.081006e+003,4.116323e+002
1.081970e+003,4.103853e+002
1.082935e+003,4.081262e+002
1.083899e+003,4.099778e+002
1.084863e+003,4.155554e+002
1.085827e+003,4.198918e+002
1.086792e+003,4.212070e+002
1.087756e+003,4.215574e+002
1.088720e+003,4.230117e+002
1.089684e+003,4.250015e+002
1.090649e+003,4.263801e+002
1.091613e+003,4.276277e+002
1.092577e+003,4.291116e+002
1.093541e+003,4.252881e+002
1.094505e+003,4.222913e+002
1.095470e+003,4.250073e+002
1.096434e+003,4.302029e+002
1.097398e+003,4.348967e+002
1.098362e+003,4.377598e+002
1.099327e+003,4.377041e+002
1.100291e+003,4.325554e+002
1.101255e+003,4.254597e+002
1.102219e+003,4.266619e+002
1.103184e+003,4.338035e+002
1.104148e+003,4.355947e+002
1.105112e+003,4.273406e+002
1.106076e+003,4.150229e+002
1.107041e+003,4.075181e+002
1.108005e+003,4.052170e+002
1.108969e+003,4.040928e+002
1.109933e+003,4.019695e+002
1.110897e+003,3.975034e+002
1.111862e+003,3.930251e+002
1.112826e+003,3.884446e+002
1.113790e+003,3.813296e+002
1.114754e+003,3.712019e+002
1.115719e+003,3.625830e+002
1.116683e+003,3.614890e+002
1.117647e+003,3.647659e+002
1.118611e+003,3.615864e+002
1.119576e+003,3.541731e+002
1.120540e+003,3.480491e+002
1.121504e+003,3.427627e+002
1.122468e+003,3.369231e+002
1.123432e+003,3.316931e+002
1.124397e+003,3.279939e+002
1.125361e+003,3.219905e+002
1.126325e+003,3.170574e+002
1.127289e+003,3.133921e+002
1.128254e+003,3.074951e+002
1.129218e+003,2.999944e+002
1.130182e+003,2.937859e+002
1.131146e+003,2.905920e+002
1.132111e+003,2.890227e+002
1.133075e+003,2.866262e+002
1.134039e+003,2.832065e+002
1.135003e+003,2.784346e+002
1.135968e+003,2.708496e+002
1.136932e+003,2.633076e+002
1.137896e+003,2.582366e+002
1.138860e+003,2.551411e+002
1.139824e+003,2.520088e+002
1.140789e+003,2.489453e+002
1.141753e+003,2.480396e+002
1.142717e+003,2.493994e+002
1.143681e+003,2.470374e+002
1.144646e+003,2.394170e+002
1.145610e+003,2.290781e+002
1.146574e+003,2.187585e+002
1.147538e+003,2.103506e+002
1.148503e+003,2.050808e+002
1.149467e+003,2.040305e+002
1.150431e+003,2.057937e+002
1.151395e+003,2.054084e+002
1.152359e+003,2.032986e+002
1.153324e+003,2.005977e+002
1.154288e+003,1.969578e+002
1.155252e+003,1.925623e+002
1.156216e+003,1.888103e+002
1.157181e+003,1.867517e+002
1.158145e+003,1.840764e+002
1.159109e+003,1.770698e+002
1.160073e+003,1.698250e+002
1.161038e+003,1.655176e+002
1.162002e+003,1.629111e+002
1.162966e+003,1.594719e+002
1.163930e+003,1.542122e+002
1.164895e+003,1.484856e+002
1.165859e+003,1.447283e+002
1.166823e+003,1.446108e+002
1.167787e+003,1.455679e+002
1.168751e+003,1.451687e+002
1.169716e+003,1.427817e+002
1.170680e+003,1.376567e+002
1.171644e+003,1.311321e+002
1.172608e+003,1.262126e+002
1.173573e+003,1.251140e+002
1.174537e+003,1.266682e+002
1.175501e+003,1.268630e+002
1.176465e+003,1.247930e+002
1.177430e+003,1.235515e+002
1.178394e+003,1.231067e+002
1.179358e+003,1.207791e+002
1.180322e+003,1.147290e+002
1.181286e+003,1.071506e+002
1.182251e+003,1.033105e+002
1.183215e+003,1.053064e+002
1.184179e+003,1.046602e+002
1.185143e+003,9.974390e+001
1.186108e+003,9.661987e+001
1.187072e+003,9.396777e+001
1.188036e+003,9.170361e+001
1.189000e+003,9.152100e+001
1.189965e+003,9.370435e+001
1.190929e+003,9.560767e+001
1.191893e+003,9.468384e+001
1.192857e+003,9.165015e+001
1.193822e+003,8.960376e+001
1.194786e+003,8.869092e+001
1.195750e+003,8.636719e+001
1.196714e+003,8.057104e+001
1.197678e+003,7.379004e+001
1.198643e+003,7.051465e+001
1.199607e+003,7.141431e+001
1.200571e+003,7.059302e+001
1.201535e+003,6.762402e+001
1.202500e+003,6.771289e+001
1.203464e+003,7.076050e+001
1.204428e+003,7.223682e+001
1.205392e+003,6.946460e+001
1.206357e+003,6.318384e+001
1.207321e+003,5.539404e+001
1.208285e+003,4.764160e+001
1.209249e+003,4.195361e+001
1.210214e+003,4.158789e+001
1.211178e+003,4.720020e+001
1.212142e+003,5.285986e+001
1.213106e+003,5.666553e+001
1.214070e+003,5.885986e+001
1.215035e+003,5.914673e+001
1.215999e+003,5.738647e+001
1.216963e+003,5.426221e+001
1.217927e+003,5.072852e+001
1.218892e+003,4.778931e+001
1.219856e+003,4.621875e+001
1.220820e+003,4.535815e+001
1.221784e+003,4.504199e+001
1.222749e+003,4.529468e+001
1.223713e+003,4.559961e+001
1.224677e+003,4.528711e+001
1.225641e+003,4.415942e+001
1.226605e+003,4.258350e+001
1.227570e+003,4.059692e+001
1.228534e+003,3.851465e+001
1.229498e+003,3.743457e+001
1.230462e+003,3.844116e+001
1.231427e+003,4.176172e+001
1.232391e+003,4.405933e+001
1.233355e+003,4.303857e+001
1.234319e+003,4.019482e+001
1.235284e+003,3.905371e+001
1.236248e+003,4.043213e+001
1.237212e+003,4.259766e+001
1.238176e+003,4.401636e+001
1.239141e+003,4.403003e+001
1.240105e+003,4.280664e+001
1.241069e+003,4.080151e+001
1.242033e+003,3.788159e+001
1.242997e+003,3.322168e+001
1.243962e+003,2.802783e+001
1.244926e+003,2.868579e+001
1.245890e+003,4.128052e+001
1.246854e+003,4.789648e+001
1.247819e+003,4.301294e+001
1.248783e+003,3.827490e+001
1.249747e+003,3.985522e+001
1.250711e+003,4.421802e+001
1.251676e+003,4.493384e+001
1.252640e+003,4.002905e+001
1.253604e+003,3.334766e+001
1.254568e+003,2.873315e+001
1.255532e+003,2.769775e+001
1.256497e+003,3.219458e+001
1.257461e+003,4.098999e+001
1.258425e+003,4.651489e+001
1.259389e+003,4.478809e+001
1.260354e+003,4.040674e+001
1.261318e+003,3.861426e+001
1.262282e+003,3.935767e+001
1.263246e+003,4.127930e+001
1.264211e+003,4.627246e+001
1.265175e+003,4.852124e+001
1.266139e+003,4.387280e+001
1.267103e+003,3.886792e+001
1.268068e+003,3.773804e+001
1.269032e+003,3.898535e+001
1.269996e+003,3.961108e+001
1.270960e+003,3.886011e+001
1.271924e+003,3.837085e+001
1.272889e+003,3.922827e+001
1.273853e+003,4.109912e+001
1.274817e+003,4.150195e+001
1.275781e+003,3.427222e+001
1.276746e+003,2.785889e+001
1.277710e+003,3.093408e+001
1.278674e+003,3.765796e+001
1.279638e+003,3.829541e+001
1.280603e+003,3.260376e+001
1.281567e+003,3.013843e+001
1.282531e+003,3.524756e+001
1.283495e+003,4.160205e+001
1.284459e+003,4.309106e+001
1.285424e+003,4.154834e+001
1.286388e+003,4.042676e+001
1.287352e+003,4.088794e+001
1.288316e+003,4.172974e+001
1.289281e+003,4.244873e+001
1.290245e+003,4.343481e+001
1.291209e+003,4.296924e+001
1.292173e+003,3.693213e+001
1.293138e+003,3.419019e+001
1.294102e+003,4.187939e+001
1.295066e+003,4.801465e+001
1.296030e+003,4.718579e+001
1.296995e+003,4.351099e+001
1.297959e+003,4.231177e+001
1.298923e+003,4.435303e+001
1.299887e+003,4.578198e+001
1.300851e+003,4.254199e+001
1.301816e+003,3.489185e+001
1.302780e+003,2.809717e+001
1.303744e+003,2.599780e+001
1.304708e+003,2.646875e+001
1.305673e+003,2.811401e+001
1.306637e+003,3.175830e+001
1.307601e+003,3.765552e+001
1.308565e+003,4.254150e+001
1.309530e+003,4.263232e+001
1.310494e+003,3.937744e+001
1.311458e+003,3.806958e+001
1.312422e+003,4.134595e+001
1.313386e+003,4.423389e+001
1.314351e+003,4.119165e+001
1.315315e+003,3.546167e+001
1.316279e+003,3.398193e+001
1.317243e+003,3.855469e+001
1.318208e+003,4.393091e+001
1.319172e+003,4.366260e+001
1.320136e+003,3.845728e+001
1.321100e+003,3.803369e+001
1.322065e+003,4.946094e+001
1.323029e+003,5.710596e+001
1.323993e+003,5.634595e+001
1.324957e+003,5.381543e+001
1.325922e+003,5.018701e+001
1.326886e+003,4.463916e+001
1.327850e+003,3.853003e+001
1.328814e+003,3.425757e+001
1.329778e+003,3.257422e+001
1.330743e+003,3.256299e+001
1.331707e+003,3.398193e+001
1.332671e+003,3.621509e+001
1.333635e+003,3.777759e+001
1.334600e+003,3.951807e+001
1.335564e+003,4.255420e+001
1.336528e+003,4.433667e+001
1.337492e+003,4.363086e+001
1.338457e+003,4.176416e+001
1.339421e+003,4.012817e+001
1.340385e+003,3.869409e+001
1.341349e+003,3.859790e+001
1.342313e+003,3.848120e+001
1.343278e+003,3.886719e+001
1.344242e+003,4.248267e+001
1.345206e+003,4.713477e+001
1.346170e+003,4.916187e+001
1.347135e+003,4.809497e+001
1.348099e+003,4.579346e+001
1.349063e+003,4.311401e+001
1.350027e+003,4.027002e+001
1.350992e+003,4.222778e+001
1.351956e+003,5.403027e+001
1.352920e+003,5.785278e+001
1.353884e+003,4.905811e+001
1.354849e+003,4.113696e+001
1.355813e+003,4.112598e+001
1.356777e+003,4.568799e+001
1.357741e+003,4.889868e+001
1.358705e+003,4.880566e+001
1.359670e+003,4.751050e+001
1.360634e+003,4.679712e+001
1.361598e+003,4.573828e+001
1.362562e+003,4.384351e+001
1.363527e+003,4.374951e+001
1.364491e+003,4.384863e+001
1.365455e+003,3.861938e+001
1.366419e+003,3.437622e+001
1.367384e+003,3.903955e+001
1.368348e+003,4.750610e+001
1.369312e+003,4.994434e+001
1.370276e+003,4.694214e+001
1.371240e+003,4.578198e+001
1.372205e+003,4.615991e+001
1.373169e+003,4.637720e+001
1.374133e+003,4.734668e+001
1.375097e+003,4.725903e+001
1.376062e+003,4.417090e+001
1.377026e+003,3.908789e+001
1.377990e+003,3.530151e+001
1.378954e+003,3.571167e+001
1.379919e+003,3.999951e+001
1.380883e+003,4.535449e+001
1.381847e+003,5.033887e+001
1.382811e+003,5.253784e+001
1.383776e+003,4.784619e+001
1.384740e+003,4.283447e+001
1.385704e+003,4.146509e+001
1.386668e+003,4.381860e+001
1.387632e+003,4.999609e+001
1.388597e+003,5.732568e+001
1.389561e+003,6.122314e+001
1.390525e+003,6.000708e+001
1.391489e+003,5.776245e+001
1.392454e+003,6.014355e+001
1.393418e+003,6.575146e+001
1.394382e+003,6.614111e+001
1.395346e+003,5.966821e+001
1.396311e+003,5.344824e+001
1.397275e+003,5.145508e+001
1.398239e+003,5.358618e+001
1.399203e+003,5.771802e+001
1.400167e+003,6.119727e+001
1.401132e+003,6.156543e+001
1.402096e+003,5.814624e+001
1.403060e+003,5.468042e+001
1.404024e+003,5.729761e+001
1.404989e+003,6.416431e+001
1.405953e+003,6.640161e+001
1.406917e+003,6.268042e+001
1.407881e+003,5.760107e+001
1.408846e+003,5.366772e+001
1.409810e+003,5.092920e+001
1.410774e+003,5.008765e+001
1.411738e+003,5.220605e+001
1.412703e+003,5.633643e+001
1.413667e+003,5.973096e+001
1.414631e+003,6.079175e+001
1.415595e+003,6.175000e+001
1.416559e+003,6.056567e+001
1.417524e+003,5.531836e+001
1.418488e+003,5.112939e+001
1.419452e+003,5.189087e+001
1.420416e+003,5.572632e+001
1.421381e+003,5.869971e+001
1.422345e+003,5.910449e+001
1.423309e+003,5.697754e+001
1.424273e+003,5.125513e+001
1.425238e+003,4.222144e+001
1.426202e+003,4.094678e+001
1.427166e+003,5.279614e+001
1.428130e+003,6.128394e+001
1.429094e+003,6.177954e+001
1.430059e+003,6.023242e+001
1.431023e+003,6.316968e+001
1.431987e+003,6.920361e+001
1.432951e+003,7.221362e+001
1.433916e+003,6.985254e+001
1.434880e+003,6.633984e+001
1.435844e+003,6.619263e+001
1.436808e+003,6.788037e+001
1.437773e+003,6.640601e+001
1.438737e+003,6.140503e+001
1.439701e+003,5.809351e+001
1.440665e+003,5.700684e+001
1.441630e+003,5.553638e+001
1.442594e+003,5.336523e+001
1.443558e+003,5.240723e+001
1.444522e+003,5.392358e+001
1.445486e+003,5.732837e+001
1.446451e+003,6.187231e+001
1.447415e+003,6.785938e+001
1.448379e+003,7.275708e+001
1.449343e+003,7.187354e+001
1.450308e+003,6.744043e+001
1.451272e+003,6.571411e+001
1.452236e+003,6.744873e+001
1.453200e+003,6.830981e+001
1.454165e+003,6.634326e+001
1.455129e+003,6.472705e+001
1.456093e+003,6.636938e+001
1.457057e+003,6.918433e+001
1.458021e+003,6.870874e+001
1.458986e+003,6.426025e+001
1.459950e+003,6.190601e+001
1.460914e+003,6.724951e+001
1.461878e+003,7.294507e+001
1.462843e+003,7.340601e+001
1.463807e+003,7.066309e+001
1.464771e+003,6.836792e+001
1.465735e+003,6.842749e+001
1.466700e+003,7.080664e+001
1.467664e+003,7.423486e+001
1.468628e+003,7.697559e+001
1.469592e+003,7.783032e+001
1.470557e+003,7.644702e+001
1.471521e+003,7.200806e+001
1.472485e+003,6.499951e+001
1.473449e+003,6.302710e+001
1.474413e+003,6.792456e+001
1.475378e+003,7.316357e+001
1.476342e+003,7.379517e+001
1.477306e+003,7.118994e+001
1.478270e+003,6.921289e+001
1.479235e+003,6.934009e+001
1.480199e+003,7.033203e+001
1.481163e+003,7.135352e+001
1.482127e+003,7.343604e+001
1.483092e+003,7.624170e+001
1.484056e+003,7.746436e+001
1.485020e+003,8.027979e+001
1.485984e+003,8.830151e+001
1.486948e+003,9.283594e+001
1.487913e+003,8.935815e+001
1.488877e+003,8.462939e+001
1.489841e+003,8.410498e+001
1.490805e+003,8.586084e+001
1.491770e+003,8.564453e+001
1.492734e+003,8.294580e+001
1.493698e+003,7.982593e+001
1.494662e+003,7.728564e+001
1.495627e+003,7.427295e+001
1.496591e+003,6.860596e+001
1.497555e+003,6.204907e+001
1.498519e+003,6.301392e+001
1.499484e+003,7.516724e+001
1.500448e+003,8.714160e+001
1.501412e+003,9.189185e+001
1.502376e+003,9.125928e+001
1.503340e+003,9.058691e+001
1.504305e+003,9.234082e+001
1.505269e+003,9.429468e+001
1.506233e+003,9.323706e+001
1.507197e+003,9.035352e+001
1.508162e+003,8.869458e+001
1.509126e+003,8.860107e+001
1.510090e+003,8.872778e+001
1.511054e+003,8.905469e+001
1.512019e+003,8.965869e+001
1.512983e+003,8.926465e+001
1.513947e+003,8.757690e+001
1.514911e+003,8.665820e+001
1.515875e+003,8.770947e+001
1.516840e+003,8.925415e+001
1.517804e+003,8.981128e+001
1.518768e+003,8.924561e+001
1.519732e+003,8.690991e+001
1.520697e+003,8.467065e+001
1.521661e+003,8.521753e+001
1.522625e+003,8.658374e+001
1.523589e+003,8.575757e+001
1.524554e+003,8.235547e+001
1.525518e+003,7.908984e+001
1.526482e+003,7.839990e+001
1.527446e+003,7.855518e+001
1.528411e+003,7.608960e+001
1.529375e+003,7.328857e+001
1.530339e+003,7.819043e+001
1.531303e+003,9.074731e+001
1.532267e+003,9.749390e+001
1.533232e+003,9.181567e+001
1.534196e+003,8.336987e+001
1.535160e+003,7.965698e+001
1.536124e+003,7.828711e+001
1.537089e+003,7.651489e+001
1.538053e+003,7.477124e+001
1.539017e+003,7.334448e+001
1.539981e+003,7.090161e+001
1.540946e+003,6.795605e+001
1.541910e+003,6.702905e+001
1.542874e+003,6.828955e+001
1.543838e+003,7.003784e+001
1.544802e+003,7.532227e+001
1.545767e+003,8.013647e+001
1.546731e+003,7.711890e+001
1.547695e+003,7.405859e+001
1.548659e+003,7.750952e+001
1.549624e+003,8.141040e+001
1.550588e+003,7.777563e+001
1.551552e+003,6.879150e+001
1.552516e+003,6.321411e+001
1.553481e+003,6.477271e+001
1.554445e+003,6.819727e+001
1.555409e+003,6.808350e+001
1.556373e+003,6.768335e+001
1.557338e+003,7.244995e+001
1.558302e+003,7.980859e+001
1.559266e+003,8.155444e+001
1.560230e+003,7.541602e+001
1.561194e+003,6.972461e+001
1.562159e+003,6.983081e+001
1.563123e+003,7.345801e+001
1.564087e+003,7.656494e+001
1.565051e+003,7.791675e+001
1.566016e+003,7.813965e+001
1.566980e+003,7.785181e+001
1.567944e+003,7.793359e+001
1.568908e+003,7.995972e+001
1.569873e+003,8.380420e+001
1.570837e+003,8.527271e+001
1.571801e+003,8.266431e+001
1.572765e+003,7.938452e+001
1.573729e+003,7.160693e+001
1.574694e+003,6.539185e+001
1.575658e+003,6.515161e+001
1.576622e+003,6.793408e+001
1.577586e+003,7.127832e+001
1.578551e+003,7.412256e+001
1.579515e+003,7.693042e+001
1.580479e+003,8.024390e+001
1.581443e+003,8.265356e+001
1.582408e+003,8.173706e+001
1.583372e+003,7.805688e+001
1.584336e+003,7.627393e+001
1.585300e+003,7.811865e+001
1.586265e+003,8.131396e+001
1.587229e+003,8.765796e+001
1.588193e+003,9.107178e+001
1.589157e+003,9.076538e+001
1.590121e+003,8.937061e+001
1.591086e+003,8.820850e+001
1.592050e+003,8.732007e+001
1.593014e+003,8.439746e+001
1.593978e+003,7.892114e+001
1.594943e+003,7.429517e+001
1.595907e+003,7.398315e+001
1.596871e+003,7.724805e+001
1.597835e+003,8.079980e+001
1.598800e+003,8.284058e+001
1.599764e+003,8.345850e+001
1.600728e+003,8.523218e+001
1.601692e+003,8.268018e+001
1.602656e+003,7.351050e+001
1.603621e+003,6.851392e+001
1.604585e+003,7.021899e+001
1.605549e+003,7.414014e+001
1.606513e+003,7.714404e+001
1.607478e+003,7.844287e+001
1.608442e+003,7.908032e+001
1.609406e+003,8.059058e+001
1.610370e+003,8.252612e+001
1.611335e+003,8.242114e+001
1.612299e+003,7.980103e+001
1.613263e+003,7.898438e+001
1.614227e+003,8.317261e+001
1.615192e+003,8.770654e+001
1.616156e+003,9.211621e+001
1.617120e+003,9.479346e+001
1.618084e+003,9.524731e+001
1.619048e+003,9.355957e+001
1.620013e+003,8.857349e+001
1.620977e+003,8.266772e+001
1.621941e+003,7.839307e+001
1.622905e+003,7.569019e+001
1.623870e+003,7.399097e+001
1.624834e+003,7.422437e+001
1.625798e+003,7.689282e+001
1.626762e+003,8.033667e+001
1.627727e+003,8.269238e+001
1.628691e+003,8.377661e+001
1.629655e+003,8.575610e+001
1.630619e+003,8.674292e+001
1.631583e+003,8.615454e+001
1.632548e+003,8.527686e+001
1.633512e+003,8.346216e+001
1.634476e+003,8.129395e+001
1.635440e+003,7.941724e+001
1.636405e+003,7.703003e+001
1.637369e+003,7.329517e+001
1.638333e+003,6.976440e+001
1.639297e+003,7.003784e+001
1.640262e+003,7.597363e+001
1.641226e+003,8.396729e+001
1.642190e+003,8.626123e+001
1.643154e+003,7.988843e+001
1.644119e+003,7.640991e+001
1.645083e+003,8.192554e+001
1.646047e+003,8.770874e+001
1.647011e+003,9.319922e+001
1.647975e+003,9.336865e+001
1.648940e+003,8.450269e+001
1.649904e+003,7.413232e+001
1.650868e+003,7.023901e+001
1.651832e+003,7.258105e+001
1.652797e+003,7.594385e+001
1.653761e+003,7.741602e+001
1.654725e+003,7.805200e+001
1.655689e+003,7.933105e+001
1.656654e+003,8.104614e+001
1.657618e+003,8.279712e+001
1.658582e+003,8.447729e+001
1.659546e+003,8.542188e+001
1.660510e+003,8.627002e+001
1.661475e+003,8.682056e+001
1.662439e+003,8.783569e+001
1.663403e+003,8.915381e+001
1.664367e+003,8.966406e+001
1.665332e+003,8.850610e+001
1.666296e+003,8.473682e+001
1.667260e+003,7.960962e+001
1.668224e+003,7.727954e+001
1.669189e+003,8.092188e+001
1.670153e+003,8.856812e+001
1.671117e+003,9.500903e+001
1.672081e+003,9.772827e+001
1.673046e+003,9.708032e+001
1.674010e+003,9.624829e+001
1.674974e+003,9.325220e+001
1.675938e+003,8.279980e+001
1.676902e+003,7.524951e+001
1.677867e+003,7.532861e+001
1.678831e+003,7.771655e+001
1.679795e+003,7.940552e+001
1.680759e+003,8.048853e+001
1.681724e+003,8.053687e+001
1.682688e+003,7.935840e+001
1.683652e+003,7.865747e+001
1.684616e+003,7.972119e+001
1.685581e+003,8.166919e+001
1.686545e+003,8.350244e+001
1.687509e+003,8.524683e+001
1.688473e+003,8.648120e+001
1.689438e+003,8.754102e+001
1.690402e+003,8.719873e+001
1.691366e+003,8.401587e+001
1.692330e+003,8.203320e+001
1.693294e+003,8.391919e+001
1.694259e+003,8.663892e+001
1.695223e+003,8.766089e+001
1.696187e+003,8.795020e+001
1.697151e+003,8.871680e+001
1.698116e+003,8.867480e+001
1.699080e+003,8.788330e+001
1.700044e+003,8.869897e+001
1.701008e+003,9.067017e+001
1.701973e+003,9.203003e+001
1.702937e+003,9.382300e+001
1.703901e+003,9.602783e+001
1.704865e+003,9.580737e+001
1.705829e+003,9.287427e+001
1.706794e+003,8.972437e+001
1.707758e+003,8.728467e+001
1.708722e+003,8.386426e+001
1.709686e+003,8.097266e+001
1.710651e+003,8.104980e+001
1.711615e+003,8.197314e+001
1.712579e+003,8.223218e+001
1.713543e+003,8.521606e+001
1.714508e+003,8.809204e+001
1.715472e+003,8.677563e+001
1.716436e+003,8.553296e+001
1.717400e+003,8.857397e+001
1.718365e+003,9.248901e+001
1.719329e+003,9.316406e+001
1.720293e+003,9.161621e+001
1.721257e+003,8.969141e+001
1.722221e+003,8.750708e+001
1.723186e+003,8.561987e+001
1.724150e+003,8.458276e+001
1.725114e+003,8.528711e+001
1.726078e+003,8.974561e+001
1.727043e+003,9.702783e+001
1.728007e+003,9.976025e+001
1.728971e+003,9.559302e+001
1.729935e+003,9.216504e+001
1.730900e+003,9.196094e+001
1.731864e+003,9.309814e+001
1.732828e+003,9.571704e+001
1.733792e+003,9.814233e+001
1.734756e+003,9.683960e+001
1.735721e+003,9.262036e+001
1.736685e+003,8.991553e+001
1.737649e+003,8.993628e+001
1.738613e+003,9.028394e+001
1.739578e+003,9.001001e+001
1.740542e+003,9.004834e+001
1.741506e+003,8.868188e+001
1.742470e+003,8.337524e+001
1.743435e+003,8.074438e+001
1.744399e+003,8.742725e+001
1.745363e+003,9.108105e+001
1.746327e+003,8.547949e+001
1.747292e+003,8.006885e+001
1.748256e+003,7.999243e+001
1.749220e+003,8.299585e+001
1.750184e+003,8.669873e+001
1.751148e+003,9.008423e+001
1.752113e+003,9.258789e+001
1.753077e+003,9.402661e+001
1.754041e+003,9.447754e+001
1.755005e+003,9.467041e+001
1.755970e+003,9.525635e+001
1.756934e+003,9.470459e+001
1.757898e+003,9.180957e+001
1.758862e+003,9.021924e+001
1.759827e+003,9.048169e+001
1.760791e+003,9.239795e+001
1.761755e+003,9.693433e+001
1.762719e+003,1.002439e+002
1.763683e+003,1.011626e+002
1.764648e+003,9.923779e+001
1.765612e+003,9.312183e+001
1.766576e+003,8.695776e+001
1.767540e+003,8.693799e+001
1.768505e+003,9.106226e+001
1.769469e+003,9.305298e+001
1.770433e+003,9.055859e+001
1.771397e+003,8.563574e+001
1.772362e+003,8.156934e+001
1.773326e+003,8.179443e+001
1.774290e+003,8.844360e+001
1.775254e+003,9.773901e+001
1.776219e+003,1.009309e+002
1.777183e+003,9.569434e+001
1.778147e+003,8.782813e+001
1.779111e+003,8.151343e+001
1.780075e+003,7.792407e+001
1.781040e+003,7.834766e+001
1.782004e+003,8.217529e+001
1.782968e+003,8.504614e+001
1.783932e+003,8.665356e+001
1.784897e+003,8.807764e+001
1.785861e+003,8.902710e+001
1.786825e+003,8.945996e+001
1.787789e+003,8.994189e+001
1.788754e+003,9.064380e+001
1.789718e+003,9.179004e+001
1.790682e+003,9.219019e+001
1.791646e+003,8.998438e+001
1.792610e+003,8.562549e+001
1.793575e+003,8.148560e+001
1.794539e+003,7.916772e+001
1.795503e+003,7.960986e+001
1.796467e+003,8.419116e+001
1.797432e+003,9.127930e+001
1.798396e+003,9.324194e+001
1.799360e+003,8.761401e+001
1.800324e+003,8.311914e+001
1.801289e+003,8.128857e+001
1.802253e+003,7.950781e+001
1.803217e+003,7.967749e+001
1.804181e+003,8.146460e+001
1.805146e+003,8.219141e+001
1.806110e+003,8.247705e+001
1.807074e+003,8.540381e+001
1.808038e+003,8.991553e+001
1.809002e+003,9.114478e+001
1.809967e+003,8.762061e+001
1.810931e+003,8.247559e+001
1.811895e+003,7.657813e+001
1.812859e+003,7.181616e+001
1.813824e+003,7.005127e+001
1.814788e+003,7.128662e+001
1.815752e+003,7.662671e+001
1.816716e+003,8.449634e+001
1.817681e+003,8.745923e+001
1.818645e+003,8.393774e+001
1.819609e+003,8.151025e+001
1.820573e+003,8.576221e+001
1.821537e+003,9.239722e+001
1.822502e+003,9.393115e+001
1.823466e+003,8.987524e+001
1.824430e+003,8.577710e+001
1.825394e+003,8.132324e+001
1.826359e+003,7.608032e+001
1.827323e+003,7.193530e+001
1.828287e+003,7.372925e+001
1.829251e+003,8.372363e+001
1.830216e+003,9.185620e+001
1.831180e+003,8.956445e+001
1.832144e+003,8.125220e+001
1.833108e+003,7.628662e+001
1.834073e+003,7.725391e+001
1.835037e+003,7.950269e+001
1.836001e+003,7.917920e+001
1.836965e+003,7.769629e+001
1.837929e+003,7.770166e+001
1.838894e+003,7.840625e+001
1.839858e+003,7.672949e+001
1.840822e+003,7.210107e+001
1.841786e+003,6.898926e+001
1.842751e+003,6.991797e+001
1.843715e+003,7.120630e+001
1.844679e+003,7.069312e+001
1.845643e+003,7.282861e+001
1.846608e+003,7.909180e+001
1.847572e+003,8.316357e+001
1.848536e+003,8.311011e+001
1.849500e+003,8.156348e+001
1.850464e+003,7.819434e+001
1.851429e+003,7.256348e+001
1.852393e+003,7.048682e+001
1.853357e+003,7.257544e+001
1.854321e+003,7.390747e+001
1.855286e+003,7.492236e+001
1.856250e+003,7.610132e+001
1.857214e+003,7.671460e+001
1.858178e+003,7.708374e+001
1.859143e+003,7.685303e+001
1.860107e+003,7.658374e+001
1.861071e+003,7.929834e+001
1.862035e+003,8.542603e+001
1.863000e+003,9.068115e+001
1.863964e+003,9.200269e+001
1.864928e+003,9.013232e+001
1.865892e+003,8.581860e+001
1.866856e+003,8.045020e+001
1.867821e+003,7.861768e+001
1.868785e+003,7.764380e+001
1.869749e+003,7.839038e+001
1.870713e+003,8.746460e+001
1.871678e+003,9.317529e+001
1.872642e+003,8.635571e+001
1.873606e+003,7.954028e+001
1.874570e+003,8.142554e+001
1.875535e+003,8.575342e+001
1.876499e+003,8.564429e+001
1.877463e+003,8.259570e+001
1.878427e+003,7.973486e+001
1.879391e+003,7.682690e+001
1.880356e+003,7.467603e+001
1.881320e+003,7.293408e+001
1.882284e+003,7.122021e+001
1.883248e+003,7.149097e+001
1.884213e+003,7.426904e+001
1.885177e+003,7.814893e+001
1.886141e+003,8.128003e+001
1.887105e+003,8.067334e+001
1.888070e+003,7.618481e+001
1.889034e+003,7.352051e+001
1.889998e+003,7.748706e+001
1.890962e+003,8.469751e+001
1.891927e+003,8.763916e+001
1.892891e+003,8.511377e+001
1.893855e+003,8.350586e+001
1.894819e+003,8.517847e+001
1.895783e+003,8.218384e+001
1.896748e+003,7.254492e+001
1.897712e+003,6.818115e+001
1.898676e+003,7.194580e+001
1.899640e+003,7.707935e+001
1.900605e+003,8.208130e+001
1.901569e+003,8.475269e+001
1.902533e+003,8.241699e+001
1.903497e+003,7.622510e+001
1.904462e+003,6.927148e+001
1.905426e+003,6.322754e+001
1.906390e+003,6.059717e+001
1.907354e+003,6.432104e+001
1.908318e+003,7.076245e+001
1.909283e+003,7.458057e+001
1.910247e+003,7.516479e+001
1.911211e+003,7.411450e+001
1.912175e+003,7.260376e+001
1.913140e+003,7.220386e+001
1.914104e+003,7.359912e+001
1.915068e+003,7.487500e+001
1.916032e+003,7.463403e+001
1.916997e+003,7.510986e+001
1.917961e+003,7.879639e+001
1.918925e+003,8.284253e+001
1.919889e+003,8.040674e+001
1.920854e+003,7.123608e+001
1.921818e+003,6.684644e+001
1.922782e+003,6.990918e+001
1.923746e+003,7.113354e+001
1.924710e+003,7.109644e+001
1.925675e+003,7.035278e+001
1.926639e+003,6.618945e+001
1.927603e+003,6.238062e+001
1.928567e+003,6.052930e+001
1.929532e+003,6.087915e+001
1.930496e+003,6.585254e+001
1.931460e+003,7.401709e+001
1.932424e+003,7.847217e+001
1.933389e+003,7.680127e+001
1.934353e+003,7.368652e+001
1.935317e+003,7.017505e+001
1.936281e+003,6.806128e+001
1.937245e+003,7.026270e+001
1.938210e+003,7.336377e+001
1.939174e+003,7.303467e+001
1.940138e+003,7.058716e+001
1.941102e+003,6.893408e+001
1.942067e+003,6.949414e+001
1.943031e+003,7.307397e+001
1.943995e+003,7.838916e+001
1.944959e+003,8.167065e+001
1.945924e+003,8.139697e+001
1.946888e+003,7.980762e+001
1.947852e+003,7.776172e+001
1.948816e+003,7.482617e+001
1.949781e+003,7.365161e+001
1.950745e+003,7.319775e+001
1.951709e+003,7.056836e+001
1.952673e+003,6.776904e+001
1.953637e+003,6.729761e+001
1.954602e+003,6.877466e+001
1.955566e+003,7.014966e+001
1.956530e+003,7.070264e+001
1.957494e+003,7.162109e+001
1.958459e+003,7.306445e+001
1.959423e+003,7.330322e+001
1.960387e+003,7.263379e+001
1.961351e+003,7.233691e+001
1.962316e+003,7.128027e+001
1.963280e+003,6.924316e+001
1.964244e+003,6.693506e+001
1.965208e+003,6.349634e+001
1.966172e+003,6.213745e+001
1.967137e+003,6.519287e+001
1.968101e+003,6.930566e+001
1.969065e+003,7.158008e+001
1.970029e+003,7.051880e+001
1.970994e+003,6.609351e+001
1.971958e+003,6.146338e+001
1.972922e+003,5.976953e+001
1.973886e+003,5.889624e+001
1.974851e+003,5.720557e+001
1.975815e+003,5.702173e+001
1.976779e+003,5.883887e+001
1.977743e+003,6.241357e+001
1.978708e+003,6.705859e+001
1.979672e+003,6.858813e+001
1.980636e+003,6.562744e+001
1.981600e+003,6.188403e+001
1.982564e+003,5.999512e+001
1.983529e+003,6.014160e+001
1.984493e+003,6.229688e+001
1.985457e+003,6.442456e+001
1.986421e+003,6.224951e+001
1.987386e+003,5.764600e+001
1.988350e+003,6.125146e+001
1.989314e+003,7.360181e+001
1.990278e+003,7.524902e+001
1.991243e+003,6.172290e+001
1.992207e+003,5.400488e+001
1.993171e+003,6.194629e+001
1.994135e+003,6.946045e+001
1.995099e+003,6.708936e+001
1.996064e+003,6.301050e+001
1.997028e+003,6.284180e+001
1.997992e+003,6.458569e+001
1.998956e+003,6.596387e+001
1.999921e+003,6.679102e+001
2.000885e+003,6.606641e+001
2.001849e+003,6.140527e+001
2.002813e+003,5.683765e+001
2.003778e+003,5.607227e+001
2.004742e+003,5.713477e+001
2.005706e+003,5.910010e+001
2.006670e+003,6.122095e+001
2.007635e+003,6.386597e+001
2.008599e+003,6.580640e+001
2.009563e+003,6.409253e+001
2.010527e+003,5.946460e+001
2.011491e+003,5.527344e+001
2.012456e+003,5.258203e+001
2.013420e+003,5.105591e+001
2.014384e+003,5.148511e+001
2.015348e+003,5.298926e+001
2.016313e+003,5.397681e+001
2.017277e+003,5.410815e+001
2.018241e+003,5.192065e+001
2.019205e+003,4.930273e+001
2.020170e+003,5.260181e+001
2.021134e+003,6.061377e+001
2.022098e+003,6.480542e+001
2.023062e+003,6.369287e+001
2.024026e+003,6.367847e+001
2.024991e+003,6.805176e+001
2.025955e+003,7.140674e+001
2.026919e+003,6.683276e+001
2.027883e+003,5.757788e+001
2.028848e+003,5.641724e+001
2.029812e+003,6.604614e+001
2.030776e+003,6.950562e+001
2.031740e+003,6.074316e+001
2.032705e+003,5.409473e+001
2.033669e+003,5.631372e+001
2.034633e+003,5.991016e+001
2.035597e+003,6.304907e+001
2.036562e+003,6.572559e+001
2.037526e+003,6.404517e+001
2.038490e+003,6.004395e+001
2.039454e+003,6.139404e+001
2.040418e+003,6.708545e+001
2.041383e+003,6.751025e+001
2.042347e+003,6.087500e+001
2.043311e+003,5.829370e+001
2.044275e+003,6.428320e+001
2.045240e+003,6.939136e+001
2.046204e+003,6.964185e+001
2.047168e+003,6.754541e+001
2.048132e+003,6.373218e+001
2.049097e+003,6.134131e+001
2.050061e+003,6.380176e+001
2.051025e+003,6.727344e+001
2.051989e+003,6.482544e+001
2.052954e+003,5.783569e+001
2.053918e+003,5.512891e+001
2.054882e+003,5.941040e+001
2.055846e+003,6.429517e+001
2.056811e+003,6.736938e+001
2.057775e+003,6.689526e+001
2.058739e+003,6.043677e+001
2.059703e+003,5.430615e+001
2.060667e+003,5.461035e+001
2.061632e+003,5.883105e+001
2.062596e+003,6.400928e+001
2.063560e+003,6.827954e+001
2.064524e+003,6.855786e+001
2.065489e+003,6.478467e+001
2.066453e+003,5.988428e+001
2.067417e+003,5.259937e+001
2.068381e+003,4.551758e+001
2.069345e+003,4.741553e+001
2.070310e+003,5.354004e+001
2.071274e+003,5.580005e+001
2.072238e+003,5.745850e+001
2.073202e+003,5.694434e+001
2.074167e+003,5.258154e+001
2.075131e+003,5.207837e+001
2.076095e+003,5.776123e+001
2.077059e+003,6.139355e+001
2.078023e+003,5.886304e+001
2.078988e+003,5.639087e+001
2.079952e+003,5.917773e+001
2.080916e+003,6.272607e+001
2.081880e+003,6.223413e+001
2.082845e+003,6.055688e+001
2.083809e+003,5.928296e+001
2.084773e+003,5.710840e+001
2.085737e+003,5.668408e+001
2.086702e+003,5.888354e+001
2.087666e+003,5.860303e+001
2.088630e+003,5.370117e+001
2.089594e+003,5.023560e+001
2.090559e+003,5.210913e+001
2.091523e+003,5.470215e+001
2.092487e+003,5.266650e+001
2.093451e+003,4.761133e+001
2.094416e+003,4.384521e+001
2.095380e+003,4.049194e+001
2.096344e+003,3.913330e+001
2.097308e+003,4.201440e+001
2.098272e+003,4.593506e+001
2.099237e+003,5.045337e+001
2.100201e+003,5.245410e+001
2.101165e+003,4.912964e+001
2.102129e+003,4.536133e+001
2.103094e+003,4.652441e+001
2.104058e+003,4.937939e+001
2.105022e+003,4.764258e+001
2.105986e+003,4.291992e+001
2.106951e+003,4.075171e+001
2.107915e+003,3.970044e+001
2.108879e+003,3.825488e+001
2.109843e+003,3.739941e+001
2.110808e+003,3.615552e+001
2.111772e+003,3.257983e+001
2.112736e+003,3.352051e+001
2.113700e+003,4.590747e+001
2.114665e+003,5.656714e+001
2.115629e+003,5.258789e+001
2.116593e+003,4.164063e+001
2.117557e+003,3.842358e+001
2.118521e+003,4.394678e+001
2.119486e+003,4.613501e+001
2.120450e+003,3.988086e+001
2.121414e+003,3.590454e+001
2.122378e+003,3.754224e+001
2.123343e+003,3.697656e+001
2.124307e+003,3.427441e+001
2.125271e+003,3.252417e+001
2.126235e+003,3.136572e+001
2.127199e+003,3.161499e+001
2.128164e+003,3.315454e+001
2.129128e+003,3.510376e+001
2.130092e+003,3.989600e+001
2.131056e+003,4.747607e+001
2.132021e+003,5.004150e+001
2.132985e+003,4.236597e+001
2.133949e+003,3.398462e+001
2.134913e+003,3.065894e+001
2.135877e+003,2.914087e+001
2.136842e+003,3.290210e+001
2.137806e+003,3.957715e+001
2.138770e+003,3.979541e+001
2.139734e+003,3.712427e+001
2.140699e+003,3.998096e+001
2.141663e+003,4.538989e+001
2.142627e+003,4.814551e+001
2.143591e+003,4.904614e+001
2.144556e+003,4.842334e+001
2.145520e+003,4.478125e+001
2.146484e+003,4.153540e+001
2.147448e+003,4.140918e+001
2.148413e+003,4.054956e+001
2.149377e+003,3.680664e+001
2.150341e+003,3.322876e+001
2.151305e+003,3.234082e+001
2.152270e+003,3.391089e+001
2.153234e+003,3.700415e+001
2.154198e+003,3.873267e+001
2.155162e+003,3.498193e+001
2.156126e+003,2.733130e+001
2.157091e+003,2.364673e+001
2.158055e+003,2.831177e+001
2.159019e+003,3.607837e+001
2.159983e+003,4.039771e+001
2.160948e+003,4.116870e+001
2.161912e+003,3.971216e+001
2.162876e+003,3.793286e+001
2.163840e+003,3.933057e+001
2.164805e+003,4.215405e+001
2.165769e+003,4.150854e+001
2.166733e+003,3.823730e+001
2.167697e+003,3.739551e+001
2.168662e+003,4.035962e+001
2.169626e+003,4.315625e+001
2.170590e+003,4.174072e+001
2.171554e+003,3.609497e+001
2.172519e+003,2.810059e+001
2.173483e+003,2.151978e+001
2.174447e+003,2.108472e+001
2.175411e+003,2.476099e+001
2.176375e+003,2.867432e+001
2.177340e+003,3.237354e+001
2.178304e+003,3.188696e+001
2.179268e+003,2.695337e+001
2.180232e+003,2.643091e+001
2.181197e+003,3.199927e+001
2.182161e+003,3.284888e+001
2.183125e+003,2.447559e+001
2.184089e+003,1.774878e+001
2.185053e+003,2.222021e+001
2.186018e+003,3.064307e+001
2.186982e+003,3.202148e+001
2.187946e+003,2.907959e+001
2.188910e+003,2.983618e+001
2.189875e+003,3.225391e+001
2.190839e+003,2.846436e+001
2.191803e+003,2.068628e+001
2.192767e+003,1.703784e+001
2.193731e+003,1.747559e+001
2.194696e+003,1.715771e+001
2.195660e+003,1.468677e+001
2.196624e+003,1.300391e+001
2.197588e+003,1.453833e+001
2.198553e+003,1.775586e+001
2.199517e+003,2.148975e+001
2.200481e+003,2.434180e+001
2.201445e+003,2.113403e+001
2.202410e+003,1.572632e+001
2.203374e+003,1.894604e+001
2.204338e+003,2.839819e+001
2.205302e+003,3.175488e+001
2.206267e+003,2.689111e+001
2.207231e+003,2.463574e+001
2.208195e+003,2.962549e+001
2.209159e+003,3.128882e+001
2.210124e+003,2.209985e+001
2.211088e+003,1.272168e+001
2.212052e+003,1.471021e+001
2.213016e+003,2.116284e+001
2.213980e+003,2.253589e+001
2.214945e+003,2.020142e+001
2.215909e+003,1.696680e+001
2.216873e+003,1.498730e+001
2.217837e+003,1.592554e+001
2.218802e+003,1.837378e+001
2.219766e+003,2.000146e+001
2.220730e+003,1.949658e+001
2.221694e+003,1.705957e+001
2.222659e+003,1.446411e+001
2.223623e+003,1.287451e+001
2.224587e+003,1.295361e+001
2.225551e+003,1.498657e+001
2.226516e+003,1.541504e+001
2.227480e+003,1.270972e+001
2.228444e+003,1.119751e+001
2.229408e+003,1.237573e+001
2.230373e+003,1.482324e+001
2.231337e+003,1.805518e+001
2.232301e+003,2.100269e+001
2.233265e+003,2.237158e+001
2.234229e+003,2.179492e+001
2.235194e+003,1.994727e+001
2.236158e+003,1.883618e+001
2.237122e+003,1.930884e+001
2.238086e+003,1.848755e+001
2.239051e+003,1.386646e+001
2.240015e+003,9.468018e+000
2.240979e+003,1.071411e+001
2.241943e+003,1.483789e+001
2.242907e+003,1.582104e+001
2.243872e+003,1.442896e+001
2.244836e+003,1.513208e+001
2.245800e+003,1.706226e+001
2.246764e+003,1.458374e+001
2.247729e+003,6.810303e+000
2.248693e+003,1.461182e+000
2.249657e+003,4.234375e+000
2.250621e+003,9.662109e+000
2.251585e+003,1.345215e+001
2.252550e+003,1.642432e+001
2.253514e+003,1.792725e+001
2.254478e+003,1.779590e+001
2.255442e+003,1.689771e+001
2.256407e+003,1.711304e+001
2.257371e+003,2.075708e+001
2.258335e+003,2.570947e+001
2.259299e+003,2.666211e+001
2.260264e+003,2.221558e+001
2.261228e+003,1.611133e+001
2.262192e+003,1.169360e+001
2.263156e+003,1.021533e+001
2.264121e+003,1.114331e+001
2.265085e+003,1.208521e+001
2.266049e+003,1.284204e+001
2.267013e+003,1.261426e+001
2.267978e+003,1.062891e+001
2.268942e+003,8.693848e+000
2.269906e+003,6.766602e+000
2.270870e+003,5.735107e+000
2.271834e+003,7.937500e+000
2.272799e+003,1.181934e+001
2.273763e+003,1.428687e+001
2.274727e+003,1.701733e+001
2.275691e+003,1.856421e+001
2.276656e+003,1.531885e+001
2.277620e+003,1.257446e+001
2.278584e+003,1.050684e+001
2.279548e+003,9.605225e+000
2.280513e+003,1.181348e+001
2.281477e+003,1.473828e+001
2.282441e+003,1.718555e+001
2.283405e+003,1.808154e+001
2.284370e+003,1.699487e+001
2.285334e+003,1.558008e+001
2.286298e+003,1.498535e+001
2.287262e+003,1.352637e+001
2.288227e+003,9.878906e+000
2.289191e+003,2.593262e+000
2.290155e+003,0.000000e+000
2.291119e+003,7.449219e+000
2.292083e+003,1.293970e+001
2.293048e+003,1.153784e+001
2.294012e+003,9.768311e+000
2.294976e+003,1.066162e+001
2.295940e+003,1.433667e+001
2.296905e+003,2.163721e+001
2.297869e+003,2.780835e+001
2.298833e+003,2.593335e+001
2.299797e+003,1.858813e+001
2.300761e+003,1.602539e+001
2.301726e+003,1.980762e+001
2.302690e+003,2.045923e+001
2.303654e+003,1.524316e+001
2.304618e+003,1.208350e+001
2.305583e+003,1.213501e+001
2.306547e+003,1.510107e+001
2.307511e+003,2.266309e+001
2.308475e+003,2.670972e+001
2.309439e+003,2.146411e+001
2.310404e+003,1.474146e+001
2.311368e+003,1.455444e+001
2.312332e+003,1.701074e+001
2.313296e+003,1.541333e+001
2.314261e+003,1.230176e+001
2.315225e+003,1.633105e+001
2.316189e+003,2.578101e+001
2.317153e+003,2.518823e+001
2.318118e+003,1.473877e+001
2.319082e+003,1.283521e+001
2.320046e+003,2.240503e+001
2.321010e+003,2.902124e+001
2.321975e+003,2.832446e+001
2.322939e+003,2.773682e+001
2.323903e+003,3.046411e+001
2.324867e+003,3.428125e+001
2.325832e+003,3.878491e+001
2.326796e+003,4.247632e+001
2.327760e+003,4.444238e+001
2.328724e+003,4.596997e+001
2.329688e+003,4.396191e+001
2.330653e+003,3.891699e+001
2.331617e+003,3.502856e+001
2.332581e+003,3.309399e+001
2.333545e+003,3.448315e+001
2.334510e+003,3.819531e+001
2.335474e+003,3.745337e+001
2.336438e+003,3.033887e+001
2.337402e+003,2.668750e+001
2.338367e+003,3.329565e+001
2.339331e+003,4.019165e+001
2.340295e+003,3.767627e+001
2.341259e+003,3.551050e+001
2.342224e+003,4.440698e+001
2.343188e+003,5.359497e+001
2.344152e+003,5.217480e+001
2.345116e+003,4.761206e+001
2.346081e+003,4.691577e+001
2.347045e+003,4.871973e+001
2.348009e+003,5.165649e+001
2.348973e+003,5.484619e+001
2.349938e+003,5.525146e+001
2.350902e+003,5.181152e+001
2.351866e+003,4.830322e+001
2.352830e+003,4.733008e+001
2.353794e+003,4.901953e+001
2.354759e+003,5.167212e+001
2.355723e+003,5.455298e+001
2.356687e+003,5.875342e+001
2.357651e+003,6.147266e+001
2.358615e+003,5.954590e+001
2.359580e+003,5.796118e+001
2.360544e+003,6.289038e+001
2.361508e+003,6.977490e+001
2.362472e+003,7.002051e+001
2.363437e+003,6.676929e+001
2.364401e+003,6.899829e+001
2.365365e+003,7.511621e+001
2.366329e+003,8.069629e+001
2.367293e+003,8.560059e+001
2.368258e+003,8.710449e+001
2.369222e+003,8.607031e+001
2.370186e+003,8.691504e+001
2.371150e+003,9.071802e+001
2.372115e+003,9.417456e+001
2.373079e+003,9.447900e+001
2.374043e+003,9.349023e+001
2.375007e+003,9.461133e+001
2.375972e+003,9.824292e+001
2.376936e+003,1.036924e+002
2.377900e+003,1.096926e+002
2.378864e+003,1.143159e+002
2.379829e+003,1.162617e+002
2.380793e+003,1.137979e+002
2.381757e+003,1.093882e+002
2.382721e+003,1.071384e+002
2.383686e+003,1.073564e+002
2.384650e+003,1.083416e+002
2.385614e+003,1.095952e+002
2.386578e+003,1.119871e+002
2.387542e+003,1.153074e+002
2.388507e+003,1.169187e+002
2.389471e+003,1.148193e+002
2.390435e+003,1.142432e+002
2.391399e+003,1.202312e+002
2.392364e+003,1.260820e+002
2.393328e+003,1.261033e+002
2.394292e+003,1.248252e+002
2.395256e+003,1.263936e+002
2.396221e+003,1.280190e+002
2.397185e+003,1.276475e+002
2.398149e+003,1.265186e+002
2.399113e+003,1.239749e+002
2.400078e+003,1.201626e+002
2.401042e+003,1.222854e+002
2.402006e+003,1.328284e+002
2.402970e+003,1.378765e+002
2.403935e+003,1.353967e+002
2.404899e+003,1.318540e+002
2.405863e+003,1.272424e+002
2.406827e+003,1.268250e+002
2.407792e+003,1.338430e+002
2.408756e+003,1.394023e+002
2.409720e+003,1.366094e+002
2.410684e+003,1.309189e+002
2.411648e+003,1.294392e+002
2.412613e+003,1.310046e+002
2.413577e+003,1.332495e+002
2.414541e+003,1.369861e+002
2.415505e+003,1.395798e+002
2.416469e+003,1.393394e+002
2.417434e+003,1.380217e+002
2.418398e+003,1.377563e+002
2.419362e+003,1.412524e+002
2.420326e+003,1.471125e+002
2.421291e+003,1.506101e+002
2.422255e+003,1.493870e+002
2.423219e+003,1.445911e+002
2.424183e+003,1.397734e+002
2.425147e+003,1.393977e+002
2.426112e+003,1.448474e+002
2.427076e+003,1.508086e+002
2.428040e+003,1.546492e+002
2.429004e+003,1.541426e+002
2.429969e+003,1.457051e+002
2.430933e+003,1.391594e+002
2.431897e+003,1.433389e+002
2.432861e+003,1.486931e+002
2.433826e+003,1.442202e+002
2.434790e+003,1.368083e+002
2.435754e+003,1.384619e+002
2.436718e+003,1.464575e+002
2.437683e+003,1.512078e+002
2.438647e+003,1.525728e+002
2.439611e+003,1.530481e+002
2.440575e+003,1.528286e+002
2.441540e+003,1.510391e+002
2.442504e+003,1.468342e+002
2.443468e+003,1.441597e+002
2.444432e+003,1.442939e+002
2.445396e+003,1.445989e+002
2.446361e+003,1.432590e+002
2.447325e+003,1.384497e+002
2.448289e+003,1.298650e+002
2.449253e+003,1.231780e+002
2.450218e+003,1.248906e+002
2.451182e+003,1.315093e+002
2.452146e+003,1.356938e+002
2.453110e+003,1.354219e+002
2.454075e+003,1.317222e+002
2.455039e+003,1.263687e+002
2.456003e+003,1.204756e+002
2.456967e+003,1.159624e+002
2.457932e+003,1.107485e+002
2.458896e+003,1.064109e+002
2.459860e+003,1.112056e+002
2.460824e+003,1.233442e+002
2.461789e+003,1.291565e+002
2.462753e+003,1.264832e+002
2.463717e+003,1.231831e+002
2.464681e+003,1.187810e+002
2.465646e+003,1.162180e+002
2.466610e+003,1.148281e+002
2.467574e+003,1.129712e+002
2.468538e+003,1.134268e+002
2.469502e+003,1.129648e+002
2.470467e+003,1.078203e+002
2.471431e+003,1.029744e+002
2.472395e+003,1.027905e+002
2.473359e+003,1.043137e+002
2.474323e+003,1.049443e+002
2.475288e+003,1.059985e+002
2.476252e+003,1.059780e+002
2.477216e+003,1.038872e+002
2.478180e+003,9.839355e+001
2.479145e+003,9.061963e+001
2.480109e+003,8.880176e+001
2.481073e+003,9.217139e+001
2.482037e+003,9.322290e+001
2.483001e+003,9.161157e+001
2.483966e+003,8.989819e+001
2.484930e+003,8.793091e+001
2.485894e+003,8.685107e+001
2.486858e+003,8.816479e+001
2.487823e+003,8.743628e+001
2.488787e+003,8.076904e+001
2.489751e+003,7.770752e+001
2.490715e+003,8.248926e+001
2.491680e+003,8.707813e+001
2.492644e+003,8.965161e+001
2.493608e+003,9.182837e+001
2.494572e+003,9.382666e+001
2.495537e+003,9.401001e+001
2.496501e+003,9.002954e+001
2.497465e+003,8.384497e+001
2.498429e+003,8.096240e+001
2.499394e+003,8.104614e+001
2.500358e+003,7.716235e+001
2.501322e+003,7.013965e+001
2.502286e+003,7.062402e+001
2.503250e+003,7.737183e+001
2.504215e+003,8.132520e+001
2.505179e+003,8.130640e+001
2.506143e+003,8.253198e+001
2.507107e+003,8.518164e+001
2.508072e+003,8.199536e+001
2.509036e+003,7.280151e+001
2.510000e+003,6.859229e+001
2.510964e+003,7.485059e+001
2.511929e+003,8.217578e+001
2.512893e+003,8.416455e+001
2.513857e+003,8.398438e+001
2.514821e+003,8.144653e+001
2.515786e+003,7.822681e+001
2.516750e+003,7.684766e+001
2.517714e+003,7.763745e+001
2.518678e+003,8.036084e+001
2.519643e+003,8.200586e+001
2.520607e+003,7.981006e+001
2.521571e+003,7.741113e+001
2.522535e+003,8.031909e+001
2.523500e+003,8.538428e+001
2.524464e+003,8.385962e+001
2.525428e+003,7.674365e+001
2.526392e+003,7.476221e+001
2.527356e+003,7.880542e+001
2.528321e+003,8.010132e+001
2.529285e+003,7.789673e+001
2.530249e+003,8.042773e+001
2.531213e+003,8.694653e+001
2.532177e+003,9.117139e+001
2.533142e+003,9.277271e+001
2.534106e+003,9.359863e+001
2.535070e+003,9.396484e+001
2.536034e+003,9.403223e+001
2.536999e+003,9.030859e+001
2.537963e+003,8.542041e+001
2.538927e+003,8.575122e+001
2.539891e+003,8.713550e+001
2.540855e+003,8.698901e+001
2.541820e+003,8.757422e+001
2.542784e+003,8.885498e+001
2.543748e+003,8.810742e+001
2.544712e+003,8.398755e+001
2.545677e+003,8.008667e+001
2.546641e+003,8.000952e+001
2.547605e+003,8.196851e+001
2.548569e+003,8.401221e+001
2.549534e+003,8.636426e+001
2.550498e+003,8.451270e+001
2.551462e+003,8.075317e+001
2.552426e+003,8.279980e+001
2.553391e+003,8.682568e+001
2.554355e+003,8.416162e+001
2.555319e+003,7.654175e+001
2.556283e+003,7.343433e+001
2.557248e+003,7.713086e+001
2.558212e+003,8.114038e+001
2.559176e+003,8.132837e+001
2.560140e+003,7.779541e+001
2.561104e+003,6.900732e+001
2.562069e+003,6.417603e+001
2.563033e+003,6.999561e+001
2.563997e+003,7.421240e+001
2.564961e+003,7.417188e+001
2.565926e+003,7.344678e+001
2.566890e+003,7.191650e+001
2.567854e+003,7.264282e+001
2.568818e+003,7.679858e+001
2.569783e+003,7.971191e+001
2.570747e+003,7.895898e+001
2.571711e+003,7.666382e+001
2.572675e+003,7.239014e+001
2.573640e+003,6.758276e+001
2.574604e+003,6.809814e+001
2.575568e+003,6.968335e+001
2.576532e+003,6.641040e+001
2.577497e+003,6.256030e+001
2.578461e+003,6.308130e+001
2.579425e+003,6.602734e+001
2.580389e+003,6.641260e+001
2.581354e+003,6.369141e+001
2.582318e+003,6.269214e+001
2.583282e+003,6.458252e+001
2.584246e+003,6.199756e+001
2.585210e+003,5.229126e+001
2.586175e+003,5.000293e+001
2.587139e+003,5.657935e+001
2.588103e+003,6.013184e+001
2.589067e+003,5.944775e+001
2.590031e+003,5.818823e+001
2.590996e+003,5.666260e+001
2.591960e+003,5.360815e+001
2.592924e+003,5.025244e+001
2.593888e+003,4.871582e+001
2.594853e+003,4.908350e+001
2.595817e+003,5.108081e+001
2.596781e+003,5.459741e+001
2.597745e+003,5.592505e+001
2.598709e+003,5.416382e+001
2.599674e+003,5.367358e+001
2.600638e+003,5.363599e+001
2.601602e+003,5.265771e+001
2.602566e+003,5.145728e+001
2.603531e+003,4.977881e+001
2.604495e+003,4.924976e+001
2.605459e+003,5.053687e+001
2.606423e+003,5.118115e+001
2.607388e+003,4.944775e+001
2.608352e+003,4.606250e+001
2.609316e+003,4.285229e+001
2.610280e+003,4.613965e+001
2.611245e+003,5.532129e+001
2.612209e+003,5.844263e+001
2.613173e+003,5.521655e+001
2.614137e+003,5.150146e+001
2.615102e+003,4.778687e+001
2.616066e+003,4.522925e+001
2.617030e+003,4.511035e+001
2.617994e+003,4.598535e+001
2.618958e+003,4.725391e+001
2.619923e+003,4.722900e+001
2.620887e+003,4.193164e+001
2.621851e+003,4.028833e+001
2.622815e+003,4.795190e+001
2.623780e+003,5.265601e+001
2.624744e+003,5.333813e+001
2.625708e+003,5.154077e+001
2.626672e+003,4.881274e+001
2.627637e+003,4.675928e+001
2.628601e+003,4.548169e+001
2.629565e+003,4.518726e+001
2.630529e+003,4.609912e+001
2.631494e+003,4.778442e+001
2.632458e+003,4.883325e+001
2.633422e+003,4.945288e+001
2.634386e+003,4.955786e+001
2.635351e+003,4.782471e+001
2.636315e+003,4.743604e+001
2.637279e+003,4.688574e+001
2.638243e+003,4.248242e+001
2.639208e+003,3.876587e+001
2.640172e+003,3.672974e+001
2.641136e+003,3.651245e+001
2.642100e+003,4.170020e+001
2.643064e+003,4.863257e+001
2.644029e+003,4.908887e+001
2.644993e+003,4.510254e+001
2.645957e+003,4.136279e+001
2.646921e+003,3.913281e+001
2.647885e+003,3.886694e+001
2.648850e+003,3.918921e+001
2.649814e+003,4.021289e+001
2.650778e+003,4.052344e+001
2.651742e+003,4.035767e+001
2.652707e+003,4.010010e+001
2.653671e+003,3.767773e+001
2.654635e+003,3.481519e+001
2.655599e+003,3.641479e+001
2.656563e+003,4.229688e+001
2.657528e+003,4.672290e+001
2.658492e+003,4.591138e+001
2.659456e+003,4.287695e+001
2.660420e+003,4.197778e+001
2.661385e+003,3.927051e+001
2.662349e+003,3.293994e+001
2.663313e+003,3.327588e+001
2.664277e+003,4.253198e+001
2.665242e+003,4.704932e+001
2.666206e+003,3.994458e+001
2.667170e+003,3.279565e+001
2.668134e+003,3.403149e+001
2.669099e+003,3.717212e+001
2.670063e+003,4.000098e+001
2.671027e+003,4.284106e+001
2.671991e+003,4.508130e+001
2.672956e+003,4.478174e+001
2.673920e+003,4.008032e+001
2.674884e+003,3.508667e+001
2.675848e+003,3.187207e+001
2.676813e+003,3.073706e+001
2.677777e+003,3.123926e+001
2.678741e+003,3.228735e+001
2.679705e+003,3.575659e+001
2.680669e+003,4.152563e+001
2.681634e+003,3.768872e+001
2.682598e+003,2.828564e+001
2.683562e+003,3.221094e+001
2.684526e+003,4.093140e+001
2.685491e+003,3.887085e+001
2.686455e+003,3.418530e+001
2.687419e+003,3.491187e+001
2.688383e+003,3.644946e+001
2.689348e+003,3.668872e+001
2.690312e+003,3.717651e+001
2.691276e+003,3.535303e+001
2.692240e+003,3.350195e+001
2.693205e+003,3.428589e+001
2.694169e+003,3.398145e+001
2.695133e+003,3.385303e+001
2.696097e+003,3.384619e+001
2.697062e+003,3.188550e+001
2.698026e+003,3.073926e+001
2.698990e+003,3.243604e+001
2.699954e+003,3.537280e+001
2.700918e+003,3.892432e+001
2.701883e+003,4.177783e+001
2.702847e+003,3.888062e+001
2.703811e+003,2.900244e+001
2.704775e+003,2.328345e+001
2.705740e+003,2.603687e+001
2.706704e+003,2.829126e+001
2.707668e+003,2.784912e+001
2.708632e+003,2.787939e+001
2.709596e+003,2.848315e+001
2.710561e+003,3.145044e+001
2.711525e+003,3.776782e+001
2.712489e+003,4.084766e+001
2.713453e+003,3.637012e+001
2.714417e+003,3.133521e+001
2.715382e+003,3.296484e+001
2.716346e+003,3.333984e+001
2.717310e+003,2.721509e+001
2.718274e+003,2.493066e+001
2.719239e+003,2.651489e+001
2.720203e+003,2.869580e+001
2.721167e+003,3.321704e+001
2.722131e+003,3.248022e+001
2.723096e+003,2.299976e+001
2.724060e+003,1.537305e+001
2.725024e+003,1.740332e+001
2.725988e+003,2.365674e+001
2.726953e+003,2.953784e+001
2.727917e+003,3.548511e+001
2.728881e+003,3.449341e+001
2.729845e+003,2.910132e+001
2.730810e+003,2.791455e+001
2.731774e+003,2.682764e+001
2.732738e+003,2.645410e+001
2.733702e+003,2.885352e+001
2.734667e+003,2.660474e+001
2.735631e+003,2.074976e+001
2.736595e+003,1.713989e+001
2.737559e+003,1.569019e+001
2.738523e+003,1.674536e+001
2.739488e+003,2.093701e+001
2.740452e+003,2.415063e+001
2.741416e+003,2.565186e+001
2.742380e+003,2.501514e+001
2.743345e+003,2.344336e+001
2.744309e+003,2.330493e+001
2.745273e+003,2.436768e+001
2.746237e+003,2.787451e+001
2.747202e+003,3.146387e+001
2.748166e+003,2.931421e+001
2.749130e+003,2.383765e+001
2.750094e+003,2.157300e+001
2.751059e+003,2.137988e+001
2.752023e+003,2.380347e+001
2.752987e+003,2.765649e+001
2.753951e+003,2.793970e+001
2.754916e+003,2.636084e+001
2.755880e+003,2.480981e+001
2.756844e+003,2.396558e+001
2.757808e+003,2.649438e+001
2.758772e+003,3.124805e+001
2.759737e+003,3.450073e+001
2.760701e+003,3.539185e+001
2.761665e+003,3.338452e+001
2.762629e+003,2.806885e+001
2.763594e+003,2.577490e+001
2.764558e+003,2.587061e+001
2.765522e+003,2.693311e+001
2.766486e+003,2.986255e+001
2.767450e+003,3.016870e+001
2.768415e+003,2.885132e+001
2.769379e+003,2.967700e+001
2.770343e+003,3.023096e+001
2.771307e+003,2.921973e+001
2.772271e+003,2.903613e+001
2.773236e+003,2.768359e+001
2.774200e+003,2.609351e+001
2.775164e+003,2.775244e+001
2.776128e+003,1.757275e+001
2.777093e+003,1.198340e+001
2.778057e+003,2.472754e+001
2.779021e+003,2.922339e+001
2.779985e+003,2.282178e+001
2.780950e+003,2.356250e+001
2.781914e+003,2.950806e+001
2.782878e+003,3.378149e+001
2.783842e+003,3.776196e+001
2.784807e+003,3.677832e+001
2.785771e+003,2.743652e+001
2.786735e+003,2.230566e+001
2.787699e+003,2.383789e+001
2.788664e+003,2.778076e+001
2.789628e+003,3.487866e+001
2.790592e+003,3.717578e+001
2.791556e+003,3.249756e+001
2.792521e+003,2.676563e+001
2.793485e+003,2.178345e+001
2.794449e+003,1.890527e+001
2.795413e+003,2.111279e+001
2.796377e+003,2.642993e+001
2.797342e+003,3.237988e+001
2.798306e+003,3.769653e+001
2.799270e+003,4.127026e+001
2.800234e+003,4.374634e+001
2.801199e+003,4.177466e+001
2.802163e+003,3.851733e+001
2.803127e+003,3.587817e+001
2.804091e+003,3.319873e+001
2.805056e+003,3.452246e+001
2.806020e+003,3.729663e+001
2.806984e+003,3.110913e+001
2.807948e+003,2.109351e+001
2.808913e+003,2.660400e+001
2.809877e+003,3.375195e+001
2.810841e+003,2.317798e+001
2.811805e+003,1.894678e+001
2.812770e+003,3.018848e+001
2.813734e+003,3.540674e+001
2.814698e+003,3.393335e+001
2.815662e+003,3.399683e+001
2.816626e+003,3.607275e+001
2.817591e+003,3.765869e+001
2.818555e+003,3.825342e+001
2.819519e+003,3.780591e+001
2.820483e+003,3.358936e+001
2.821448e+003,2.985303e+001
2.822412e+003,3.518359e+001
2.823376e+003,4.008008e+001
2.824340e+003,3.493848e+001
2.825304e+003,3.098633e+001
2.826269e+003,3.641846e+001
2.827233e+003,4.165210e+001
2.828197e+003,4.062891e+001
2.829161e+003,3.632715e+001
2.830125e+003,3.247290e+001
2.831090e+003,3.008496e+001
2.832054e+003,3.159668e+001
2.833018e+003,3.460010e+001
2.833982e+003,3.055127e+001
2.834947e+003,2.618237e+001
2.835911e+003,3.492651e+001
2.836875e+003,4.455444e+001
2.837839e+003,3.888696e+001
2.838804e+003,3.221069e+001
2.839768e+003,3.528198e+001
2.840732e+003,4.001001e+001
2.841696e+003,3.905542e+001
2.842661e+003,3.502612e+001
2.843625e+003,3.183105e+001
2.844589e+003,3.329688e+001
2.845553e+003,4.011475e+001
2.846518e+003,4.709302e+001
2.847482e+003,5.157495e+001
2.848446e+003,5.170923e+001
2.849410e+003,4.816162e+001
2.850375e+003,4.654370e+001
2.851339e+003,4.875977e+001
2.852303e+003,5.141699e+001
2.853267e+003,5.110522e+001
2.854231e+003,4.981079e+001
2.855196e+003,5.124341e+001
2.856160e+003,5.334082e+001
2.857124e+003,5.503320e+001
2.858088e+003,5.605908e+001
2.859053e+003,5.403076e+001
2.860017e+003,5.162915e+001
2.860981e+003,4.885962e+001
2.861945e+003,4.726929e+001
2.862910e+003,5.238794e+001
2.863874e+003,5.939258e+001
2.864838e+003,5.760742e+001
2.865802e+003,5.129395e+001
2.866767e+003,5.030444e+001
2.867731e+003,5.105786e+001
2.868695e+003,5.358472e+001
2.869659e+003,5.715991e+001
2.870624e+003,5.728613e+001
2.871588e+003,5.782275e+001
2.872552e+003,6.132593e+001
2.873516e+003,6.481885e+001
2.874480e+003,6.863574e+001
2.875445e+003,7.160840e+001
2.876409e+003,6.959985e+001
2.877373e+003,6.584741e+001
2.878337e+003,6.606445e+001
2.879302e+003,6.545044e+001
2.880266e+003,6.054102e+001
2.881230e+003,5.653003e+001
2.882194e+003,5.649829e+001
2.883158e+003,5.916968e+001
2.884123e+003,6.294653e+001
2.885087e+003,6.460303e+001
2.886051e+003,6.269946e+001
2.887015e+003,6.169775e+001
2.887979e+003,6.607739e+001
2.888944e+003,7.050513e+001
2.889908e+003,6.511011e+001
2.890872e+003,5.710010e+001
2.891836e+003,5.521216e+001
2.892801e+003,5.716357e+001
2.893765e+003,6.446289e+001
2.894729e+003,6.893384e+001
2.895693e+003,6.398975e+001
2.896658e+003,6.093872e+001
2.897622e+003,6.749951e+001
2.898586e+003,7.334766e+001
2.899550e+003,6.916846e+001
2.900515e+003,6.229712e+001
2.901479e+003,5.911157e+001
2.902443e+003,5.999146e+001
2.903407e+003,6.533203e+001
2.904372e+003,6.801587e+001
2.905336e+003,6.737891e+001
2.906300e+003,6.641821e+001
2.907264e+003,6.432666e+001
2.908229e+003,6.070801e+001
2.909193e+003,5.672192e+001
2.910157e+003,5.625293e+001
2.911121e+003,6.296851e+001
2.912085e+003,7.006226e+001
2.913050e+003,6.673853e+001
2.914014e+003,6.252783e+001
2.914978e+003,6.674390e+001
2.915942e+003,7.209863e+001
2.916907e+003,7.671460e+001
2.917871e+003,7.867847e+001
2.918835e+003,7.701904e+001
2.919799e+003,7.543384e+001
2.920764e+003,7.593237e+001
2.921728e+003,7.739990e+001
2.922692e+003,7.857764e+001
2.923656e+003,7.911230e+001
2.924621e+003,7.996460e+001
2.925585e+003,8.153979e+001
2.926549e+003,8.546240e+001
2.927513e+003,8.681348e+001
2.928478e+003,8.318188e+001
2.929442e+003,8.062964e+001
2.930406e+003,8.129199e+001
2.931370e+003,8.123438e+001
2.932334e+003,7.962964e+001
2.933299e+003,8.063452e+001
2.934263e+003,8.646606e+001
2.935227e+003,9.096924e+001
2.936191e+003,8.969800e+001
2.937156e+003,8.940967e+001
2.938120e+003,9.249146e+001
2.939084e+003,9.032666e+001
2.940048e+003,8.204248e+001
2.941012e+003,8.090747e+001
2.941977e+003,8.925122e+001
2.942941e+003,9.541992e+001
2.943905e+003,9.481592e+001
2.944869e+003,9.205566e+001
2.945833e+003,8.832715e+001
2.946798e+003,8.823853e+001
2.947762e+003,9.257739e+001
2.948726e+003,9.495337e+001
2.949690e+003,9.438354e+001
2.950655e+003,9.339038e+001
2.951619e+003,9.181079e+001
2.952583e+003,8.890015e+001
2.953547e+003,8.588062e+001
2.954512e+003,8.600293e+001
2.955476e+003,9.099609e+001
2.956440e+003,9.228345e+001
2.957404e+003,8.626147e+001
2.958369e+003,8.306616e+001
2.959333e+003,8.282520e+001
2.960297e+003,8.213208e+001
2.961261e+003,8.194995e+001
2.962226e+003,8.180298e+001
2.963190e+003,8.111353e+001
2.964154e+003,8.527197e+001
2.965118e+003,9.351929e+001
2.966083e+003,9.358252e+001
2.967047e+003,8.704663e+001
2.968011e+003,8.706396e+001
2.968975e+003,9.144653e+001
2.969939e+003,9.206714e+001
2.970904e+003,9.102710e+001
2.971868e+003,9.051001e+001
2.972832e+003,8.928809e+001
2.973796e+003,8.320190e+001
2.974761e+003,7.733203e+001
2.975725e+003,8.239502e+001
2.976689e+003,9.123193e+001
2.977653e+003,9.269702e+001
2.978618e+003,8.951514e+001
2.979582e+003,8.738623e+001
2.980546e+003,8.661670e+001
2.981510e+003,8.600708e+001
2.982475e+003,8.572363e+001
2.983439e+003,8.789233e+001
2.984403e+003,8.906030e+001
2.985367e+003,8.534741e+001
2.986332e+003,8.236548e+001
2.987296e+003,8.420996e+001
2.988260e+003,8.677441e+001
2.989224e+003,8.534424e+001
2.990188e+003,8.277075e+001
2.991153e+003,8.360986e+001
2.992117e+003,8.615259e+001
2.993081e+003,8.836035e+001
2.994045e+003,9.082324e+001
2.995010e+003,9.454248e+001
2.995974e+003,9.533667e+001
2.996938e+003,9.213843e+001
2.997902e+003,8.601855e+001
2.998866e+003,7.747998e+001
2.999831e+003,7.487939e+001
3.000795e+003,8.603516e+001
3.001759e+003,9.502417e+001
3.002723e+003,8.959009e+001
3.003688e+003,8.618066e+001
3.004652e+003,9.015405e+001
3.005616e+003,9.187036e+001
3.006580e+003,8.880103e+001
3.007544e+003,8.727563e+001
3.008509e+003,8.867578e+001
3.009473e+003,8.845752e+001
3.010437e+003,8.578516e+001
3.011401e+003,8.604468e+001
3.012366e+003,9.095410e+001
3.013330e+003,9.317480e+001
3.014294e+003,9.288184e+001
3.015258e+003,8.996167e+001
3.016223e+003,8.559961e+001
3.017187e+003,8.703638e+001
3.018151e+003,9.279590e+001
3.019115e+003,9.497412e+001
3.020080e+003,9.372559e+001
3.021044e+003,9.393555e+001
3.022008e+003,9.412402e+001
3.022972e+003,9.337109e+001
3.023937e+003,9.380566e+001
3.024901e+003,9.496338e+001
3.025865e+003,9.713550e+001
3.026829e+003,9.734326e+001
3.027793e+003,9.473804e+001
3.028758e+003,9.080444e+001
3.029722e+003,8.847583e+001
3.030686e+003,9.139282e+001
3.031650e+003,9.559937e+001
3.032615e+003,9.678003e+001
3.033579e+003,9.714746e+001
3.034543e+003,9.856738e+001
3.035507e+003,9.932275e+001
3.036472e+003,9.622144e+001
3.037436e+003,9.207935e+001
3.038400e+003,9.296558e+001
3.039364e+003,9.650806e+001
3.040329e+003,9.832471e+001
3.041293e+003,9.912378e+001
3.042257e+003,9.965918e+001
3.043221e+003,9.870361e+001
3.044186e+003,9.629150e+001
3.045150e+003,9.626392e+001
3.046114e+003,1.023625e+002
3.047078e+003,1.065811e+002
3.048042e+003,1.006394e+002
3.049007e+003,9.770654e+001
3.049971e+003,1.025833e+002
3.050935e+003,1.059285e+002
3.051899e+003,1.062656e+002
3.052864e+003,1.058252e+002
3.053828e+003,1.048506e+002
3.054792e+003,1.047290e+002
3.055756e+003,1.060889e+002
3.056720e+003,1.067449e+002
3.057685e+003,1.057722e+002
3.058649e+003,1.049766e+002
3.059613e+003,1.043096e+002
3.060577e+003,1.036926e+002
3.061542e+003,1.040815e+002
3.062506e+003,1.028638e+002
3.063470e+003,1.020044e+002
3.064434e+003,1.096099e+002
3.065398e+003,1.214734e+002
3.066363e+003,1.223530e+002
3.067327e+003,1.158052e+002
3.068291e+003,1.131711e+002
3.069255e+003,1.130576e+002
3.070220e+003,1.126450e+002
3.071184e+003,1.118855e+002
3.072148e+003,1.112512e+002
3.073112e+003,1.123542e+002
3.074077e+003,1.136309e+002
3.075041e+003,1.146113e+002
3.076005e+003,1.174197e+002
3.076969e+003,1.223972e+002
3.077934e+003,1.290967e+002
3.078898e+003,1.327930e+002
3.079862e+003,1.257278e+002
3.080826e+003,1.185166e+002
3.081791e+003,1.201594e+002
3.082755e+003,1.218130e+002
3.083719e+003,1.189597e+002
3.084683e+003,1.186946e+002
3.085647e+003,1.240354e+002
3.086612e+003,1.281948e+002
3.087576e+003,1.262449e+002
3.088540e+003,1.239993e+002
3.089504e+003,1.277012e+002
3.090469e+003,1.288906e+002
3.091433e+003,1.251887e+002
3.092397e+003,1.217876e+002
3.093361e+003,1.183533e+002
3.094326e+003,1.186677e+002
3.095290e+003,1.225813e+002
3.096254e+003,1.259087e+002
3.097218e+003,1.271985e+002
3.098183e+003,1.276973e+002
3.099147e+003,1.289744e+002
3.100111e+003,1.307712e+002
3.101075e+003,1.324746e+002
3.102040e+003,1.311919e+002
3.103004e+003,1.286138e+002
3.103968e+003,1.334314e+002
3.104932e+003,1.404707e+002
3.105896e+003,1.414287e+002
3.106861e+003,1.383955e+002
3.107825e+003,1.331831e+002
3.108789e+003,1.297136e+002
3.109753e+003,1.329868e+002
3.110718e+003,1.375549e+002
3.111682e+003,1.358276e+002
3.112646e+003,1.329653e+002
3.113610e+003,1.319768e+002
3.114574e+003,1.339119e+002
3.115539e+003,1.406594e+002
3.116503e+003,1.450144e+002
3.117467e+003,1.450630e+002
3.118431e+003,1.441021e+002
3.119396e+003,1.437490e+002
3.120360e+003,1.429529e+002
3.121324e+003,1.405105e+002
3.122288e+003,1.389282e+002
3.123252e+003,1.407275e+002
3.124217e+003,1.413308e+002
3.125181e+003,1.418210e+002
3.126145e+003,1.417852e+002
3.127109e+003,1.416326e+002
3.128074e+003,1.431023e+002
3.129038e+003,1.445730e+002
3.130002e+003,1.454175e+002
3.130966e+003,1.454094e+002
3.131931e+003,1.423975e+002
3.132895e+003,1.396147e+002
3.133859e+003,1.424675e+002
3.134823e+003,1.473950e+002
3.135788e+003,1.516470e+002
3.136752e+003,1.541099e+002
3.137716e+003,1.524834e+002
3.138680e+003,1.512725e+002
3.139645e+003,1.522444e+002
3.140609e+003,1.517832e+002
3.141573e+003,1.494360e+002
3.142537e+003,1.484973e+002
3.143501e+003,1.506604e+002
3.144466e+003,1.536086e+002
3.145430e+003,1.568667e+002
3.146394e+003,1.575581e+002
3.147358e+003,1.540593e+002
3.148323e+003,1.540005e+002
3.149287e+003,1.577786e+002
3.150251e+003,1.622776e+002
3.151215e+003,1.662983e+002
3.152180e+003,1.677922e+002
3.153144e+003,1.672490e+002
3.154108e+003,1.667764e+002
3.155072e+003,1.643328e+002
3.156037e+003,1.637119e+002
3.157001e+003,1.651599e+002
3.157965e+003,1.671147e+002
3.158929e+003,1.701006e+002
3.159894e+003,1.700068e+002
3.160858e+003,1.678252e+002
3.161822e+003,1.713477e+002
3.162786e+003,1.751636e+002
3.163750e+003,1.698765e+002
3.164715e+003,1.619026e+002
3.165679e+003,1.637139e+002
3.166643e+003,1.699397e+002
3.167607e+003,1.735710e+002
3.168572e+003,1.744944e+002
3.169536e+003,1.702756e+002
3.170500e+003,1.660864e+002
3.171464e+003,1.647686e+002
3.172428e+003,1.677097e+002
3.173393e+003,1.738726e+002
3.174357e+003,1.764626e+002
3.175321e+003,1.720298e+002
3.176285e+003,1.691265e+002
3.177250e+003,1.731880e+002
3.178214e+003,1.747881e+002
3.179178e+003,1.744902e+002
3.180142e+003,1.780149e+002
3.181106e+003,1.826335e+002
3.182071e+003,1.843730e+002
3.183035e+003,1.837083e+002
3.183999e+003,1.818584e+002
3.184963e+003,1.803455e+002
3.185928e+003,1.779761e+002
3.186892e+003,1.752424e+002
3.187856e+003,1.811914e+002
3.188820e+003,1.902227e+002
3.189785e+003,1.922688e+002
3.190749e+003,1.910095e+002
3.191713e+003,1.889397e+002
3.192677e+003,1.864619e+002
3.193642e+003,1.835605e+002
3.194606e+003,1.829956e+002
3.195570e+003,1.861975e+002
3.196534e+003,1.903569e+002
3.197499e+003,1.943110e+002
3.198463e+003,1.945144e+002
3.199427e+003,1.863882e+002
3.200391e+003,1.848784e+002
3.201355e+003,1.906135e+002
3.202320e+003,1.954497e+002
3.203284e+003,1.986165e+002
3.204248e+003,2.011707e+002
3.205212e+003,2.025757e+002
3.206177e+003,2.015867e+002
3.207141e+003,1.993474e+002
3.208105e+003,1.997188e+002
3.209069e+003,2.024917e+002
3.210034e+003,2.025554e+002
3.210998e+003,2.005996e+002
3.211962e+003,2.006514e+002
3.212926e+003,2.012954e+002
3.213891e+003,1.996733e+002
3.214855e+003,1.989844e+002
3.215819e+003,2.004065e+002
3.216783e+003,2.018132e+002
3.217748e+003,2.024749e+002
3.218712e+003,2.045923e+002
3.219676e+003,2.113206e+002
3.220640e+003,2.114692e+002
3.221604e+003,2.011187e+002
3.222569e+003,1.987620e+002
3.223533e+003,2.056770e+002
3.224497e+003,2.076658e+002
3.225461e+003,2.034951e+002
3.226426e+003,2.007634e+002
3.227390e+003,2.020686e+002
3.228354e+003,2.095806e+002
3.229318e+003,2.192102e+002
3.230282e+003,2.151807e+002
3.231247e+003,2.040684e+002
3.232211e+003,2.039702e+002
3.233175e+003,2.103005e+002
3.234139e+003,2.167693e+002
3.235104e+003,2.203523e+002
3.236068e+003,2.203557e+002
3.237032e+003,2.183870e+002
3.237996e+003,2.161511e+002
3.238960e+003,2.155217e+002
3.239925e+003,2.173457e+002
3.240889e+003,2.193420e+002
3.241853e+003,2.210586e+002
3.242817e+003,2.226501e+002
3.243782e+003,2.240837e+002
3.244746e+003,2.224119e+002
3.245710e+003,2.192134e+002
3.246674e+003,2.191797e+002
3.247639e+003,2.209949e+002
3.248603e+003,2.228674e+002
3.249567e+003,2.253647e+002
3.250531e+003,2.241726e+002
3.251496e+003,2.203638e+002
3.252460e+003,2.219031e+002
3.253424e+003,2.245369e+002
3.254388e+003,2.233748e+002
3.255353e+003,2.246887e+002
3.256317e+003,2.300068e+002
3.257281e+003,2.334492e+002
3.258245e+003,2.337869e+002
3.259209e+003,2.329556e+002
3.260174e+003,2.316292e+002
3.261138e+003,2.297700e+002
3.262102e+003,2.256921e+002
3.263066e+003,2.279243e+002
3.264031e+003,2.379358e+002
3.264995e+003,2.419924e+002
3.265959e+003,2.398396e+002
3.266923e+003,2.340212e+002
3.267888e+003,2.286462e+002
3.268852e+003,2.309766e+002
3.269816e+003,2.375742e+002
3.270780e+003,2.424971e+002
3.271745e+003,2.443342e+002
3.272709e+003,2.391672e+002
3.273673e+003,2.340371e+002
3.274637e+003,2.368389e+002
3.275602e+003,2.401262e+002
3.276566e+003,2.378594e+002
3.277530e+003,2.369700e+002
3.278494e+003,2.402183e+002
3.279458e+003,2.426282e+002
3.280423e+003,2.423979e+002
3.281387e+003,2.414717e+002
3.282351e+003,2.399890e+002
3.283315e+003,2.410469e+002
3.284280e+003,2.448887e+002
3.285244e+003,2.472158e+002
3.286208e+003,2.488037e+002
3.287172e+003,2.539170e+002
3.288136e+003,2.592400e+002
3.289101e+003,2.565955e+002
3.290065e+003,2.520632e+002
3.291029e+003,2.535476e+002
3.291993e+003,2.568015e+002
3.292958e+003,2.561401e+002
3.293922e+003,2.543240e+002
3.294886e+003,2.526853e+002
3.295850e+003,2.527542e+002
3.296814e+003,2.548884e+002
3.297779e+003,2.571965e+002
3.298743e+003,2.593535e+002
3.299707e+003,2.595730e+002
3.300671e+003,2.583855e+002
3.301636e+003,2.610669e+002
3.302600e+003,2.674458e+002
3.303564e+003,2.678245e+002
3.304528e+003,2.642454e+002
3.305493e+003,2.635532e+002
3.306457e+003,2.645867e+002
3.307421e+003,2.677314e+002
3.308385e+003,2.703000e+002
3.309350e+003,2.683435e+002
3.310314e+003,2.678110e+002
3.311278e+003,2.717358e+002
3.312242e+003,2.753713e+002
3.313207e+003,2.770742e+002
3.314171e+003,2.782163e+002
3.315135e+003,2.741418e+002
3.316099e+003,2.716812e+002
3.317063e+003,2.722581e+002
3.318028e+003,2.729504e+002
3.318992e+003,2.749421e+002
3.319956e+003,2.786689e+002
3.320920e+003,2.821438e+002
3.321885e+003,2.834397e+002
3.322849e+003,2.834902e+002
3.323813e+003,2.830850e+002
3.324777e+003,2.818906e+002
3.325742e+003,2.812852e+002
3.326706e+003,2.822244e+002
3.327670e+003,2.858464e+002
3.328634e+003,2.887495e+002
3.329599e+003,2.892544e+002
3.330563e+003,2.911030e+002
3.331527e+003,2.944907e+002
3.332491e+003,2.955974e+002
3.333456e+003,2.929910e+002
3.334420e+003,2.882256e+002
3.335384e+003,2.844763e+002
3.336348e+003,2.864946e+002
3.337313e+003,2.915376e+002
3.338277e+003,2.952493e+002
3.339241e+003,2.967666e+002
3.340205e+003,2.979172e+002
3.341169e+003,3.003284e+002
3.342134e+003,3.032336e+002
3.343098e+003,3.048247e+002
3.344062e+003,3.047371e+002
3.345026e+003,3.039009e+002
3.345990e+003,3.003591e+002
3.346955e+003,2.995146e+002
3.347919e+003,3.018779e+002
3.348883e+003,3.051851e+002
3.349847e+003,3.105278e+002
3.350812e+003,3.123533e+002
3.351776e+003,3.112292e+002
3.352740e+003,3.125962e+002
3.353704e+003,3.152751e+002
3.354668e+003,3.155630e+002
3.355633e+003,3.148799e+002
3.356597e+003,3.147031e+002
3.357561e+003,3.140593e+002
3.358525e+003,3.136438e+002
3.359490e+003,3.123418e+002
3.360454e+003,3.095491e+002
3.361418e+003,3.106812e+002
3.362382e+003,3.161238e+002
3.363347e+003,3.210952e+002
3.364311e+003,3.232710e+002
3.365275e+003,3.226238e+002
3.366239e+003,3.192776e+002
3.367204e+003,3.193105e+002
3.368168e+003,3.229937e+002
3.369132e+003,3.225076e+002
3.370096e+003,3.200347e+002
3.371061e+003,3.196816e+002
3.372025e+003,3.197354e+002
3.372989e+003,3.199272e+002
3.373953e+003,3.216609e+002
3.374917e+003,3.257419e+002
3.375882e+003,3.282273e+002
3.376846e+003,3.226272e+002
3.377810e+003,3.213987e+002
3.378774e+003,3.295767e+002
3.379739e+003,3.320059e+002
3.380703e+003,3.293206e+002
3.381667e+003,3.288770e+002
3.382631e+003,3.306636e+002
3.383596e+003,3.320745e+002
3.384560e+003,3.331013e+002
3.385524e+003,3.325442e+002
3.386488e+003,3.305437e+002
3.387453e+003,3.310991e+002
3.388417e+003,3.319963e+002
3.389381e+003,3.291282e+002
3.390345e+003,3.302844e+002
3.391310e+003,3.371528e+002
3.392274e+003,3.385007e+002
3.393238e+003,3.344165e+002
3.394202e+003,3.357410e+002
3.395167e+003,3.429238e+002
3.396131e+003,3.444658e+002
3.397095e+003,3.401101e+002
3.398059e+003,3.399333e+002
3.399023e+003,3.437944e+002
3.399988e+003,3.445234e+002
3.400952e+003,3.440947e+002
3.401916e+003,3.446265e+002
3.402880e+003,3.448755e+002
3.403844e+003,3.445173e+002
3.404809e+003,3.457720e+002
3.405773e+003,3.495828e+002
3.406737e+003,3.514153e+002
3.407701e+003,3.495273e+002
3.408666e+003,3.504995e+002
3.409630e+003,3.539343e+002
3.410594e+003,3.508379e+002
3.411558e+003,3.439243e+002
3.412522e+003,3.439033e+002
3.413487e+003,3.493716e+002
3.414451e+003,3.567375e+002
3.415415e+003,3.622363e+002
3.416379e+003,3.618330e+002
3.417344e+003,3.592661e+002
3.418308e+003,3.574822e+002
3.419272e+003,3.575046e+002
3.420236e+003,3.610862e+002
3.421201e+003,3.602080e+002
3.422165e+003,3.558108e+002
3.423129e+003,3.550366e+002
3.424093e+003,3.577231e+002
3.425058e+003,3.619790e+002
3.426022e+003,3.657300e+002
3.426986e+003,3.660984e+002
3.427950e+003,3.650620e+002
3.428915e+003,3.654753e+002
3.429879e+003,3.684292e+002
3.430843e+003,3.754553e+002
3.431807e+003,3.799180e+002
3.432771e+003,3.799844e+002
3.433736e+003,3.797859e+002
3.434700e+003,3.798972e+002
3.435664e+003,3.776501e+002
3.436628e+003,3.742991e+002
3.437593e+003,3.736025e+002
3.438557e+003,3.737158e+002
3.439521e+003,3.709221e+002
3.440485e+003,3.683237e+002
3.441450e+003,3.733918e+002
3.442414e+003,3.802683e+002
3.443378e+003,3.820874e+002
3.444342e+003,3.820120e+002
3.445307e+003,3.840513e+002
3.446271e+003,3.856953e+002
3.447235e+003,3.830002e+002
3.448199e+003,3.812527e+002
3.449164e+003,3.820293e+002
3.450128e+003,3.805837e+002
3.451092e+003,3.796467e+002
3.452056e+003,3.785767e+002
3.453021e+003,3.779202e+002
3.453985e+003,3.845935e+002
3.454949e+003,3.916196e+002
3.455913e+003,3.925896e+002
3.456877e+003,3.898206e+002
3.457842e+003,3.860789e+002
3.458806e+003,3.850527e+002
3.459770e+003,3.905808e+002
3.460734e+003,3.921990e+002
3.461698e+003,3.885029e+002
3.462663e+003,3.872468e+002
3.463627e+003,3.895762e+002
3.464591e+003,3.928740e+002
3.465555e+003,3.948735e+002
3.466520e+003,3.943135e+002
3.467484e+003,3.930469e+002
3.468448e+003,3.943938e+002
3.469412e+003,3.959971e+002
3.470376e+003,3.937720e+002
3.471341e+003,3.951926e+002
3.472305e+003,4.008591e+002
3.473269e+003,4.003701e+002
3.474233e+003,3.947729e+002
3.475198e+003,3.946069e+002
3.476162e+003,4.004617e+002
3.477126e+003,4.046194e+002
3.478090e+003,4.061875e+002
3.479055e+003,4.076775e+002
3.480019e+003,4.071528e+002
3.480983e+003,4.016360e+002
3.481947e+003,3.994680e+002
3.482912e+003,4.019304e+002
3.483876e+003,4.043550e+002
3.484840e+003,4.052625e+002
3.485804e+003,4.051292e+002
3.486769e+003,4.056421e+002
3.487733e+003,4.082046e+002
3.488697e+003,4.114565e+002
3.489661e+003,4.094255e+002
3.490625e+003,4.051282e+002
3.491590e+003,4.110410e+002
3.492554e+003,4.166001e+002
3.493518e+003,4.126162e+002
3.494482e+003,4.101274e+002
3.495447e+003,4.106565e+002
3.496411e+003,4.131262e+002
3.497375e+003,4.176218e+002
3.498339e+003,4.192285e+002
3.499304e+003,4.181555e+002
3.500268e+003,4.170173e+002
