9.941663e+001,0.000000e+000
1.003809e+002,2.845505e+002
1.013451e+002,2.833681e+002
1.023093e+002,2.839933e+002
1.032736e+002,2.862980e+002
1.042378e+002,2.901927e+002
1.052020e+002,2.936114e+002
1.061663e+002,2.955710e+002
1.071305e+002,2.954490e+002
1.080947e+002,2.917670e+002
1.090590e+002,2.859141e+002
1.100232e+002,2.799631e+002
1.109874e+002,2.749957e+002
1.119517e+002,2.713073e+002
1.129159e+002,2.684921e+002
1.138801e+002,2.665488e+002
1.148444e+002,2.653878e+002
1.158086e+002,2.648404e+002
1.167728e+002,2.646470e+002
1.177371e+002,2.651467e+002
1.187013e+002,2.652328e+002
1.196655e+002,2.643677e+002
1.206298e+002,2.624141e+002
1.215940e+002,2.612371e+002
1.225582e+002,2.613430e+002
1.235225e+002,2.608987e+002
1.244867e+002,2.592792e+002
1.254509e+002,2.564439e+002
1.264152e+002,2.550154e+002
1.273794e+002,2.551581e+002
1.283436e+002,2.554841e+002
1.293079e+002,2.551145e+002
1.302721e+002,2.534491e+002
1.312363e+002,2.508787e+002
1.322006e+002,2.477976e+002
1.331648e+002,2.444773e+002
1.341290e+002,2.414130e+002
1.350933e+002,2.396968e+002
1.360575e+002,2.394647e+002
1.370217e+002,2.394240e+002
1.379860e+002,2.396658e+002
1.389502e+002,2.402491e+002
1.399144e+002,2.402333e+002
1.408787e+002,2.390905e+002
1.418429e+002,2.371410e+002
1.428071e+002,2.343167e+002
1.437714e+002,2.306385e+002
1.447356e+002,2.278732e+002
1.456998e+002,2.260892e+002
1.466641e+002,2.250381e+002
1.476283e+002,2.248285e+002
1.485925e+002,2.257246e+002
1.495568e+002,2.269086e+002
1.505210e+002,2.273373e+002
1.514852e+002,2.270635e+002
1.524495e+002,2.262001e+002
1.534137e+002,2.249249e+002
1.543779e+002,2.235208e+002
1.553422e+002,2.218293e+002
1.563064e+002,2.194044e+002
1.572706e+002,2.164686e+002
1.582349e+002,2.146194e+002
1.591991e+002,2.144338e+002
1.601633e+002,2.139967e+002
1.611276e+002,2.132020e+002
1.620918e+002,2.121022e+002
1.630560e+002,2.105807e+002
1.640203e+002,2.077423e+002
1.649845e+002,2.049945e+002
1.659487e+002,2.033209e+002
1.669130e+002,2.033640e+002
1.678772e+002,2.043875e+002
1.688414e+002,2.043694e+002
1.698057e+002,2.034819e+002
1.707699e+002,2.022871e+002
1.717341e+002,2.015321e+002
1.726984e+002,2.020443e+002
1.736626e+002,2.027286e+002
1.746268e+002,2.033252e+002
1.755911e+002,2.034958e+002
1.765553e+002,2.028182e+002
1.775195e+002,1.995959e+002
1.784838e+002,1.965336e+002
1.794480e+002,1.946979e+002
1.804122e+002,1.942321e+002
1.813765e+002,1.944645e+002
1.823407e+002,1.941263e+002
1.833049e+002,1.934238e+002
1.842692e+002,1.926984e+002
1.852334e+002,1.921818e+002
1.861976e+002,1.919954e+002
1.871619e+002,1.919087e+002
1.881261e+002,1.915245e+002
1.890903e+002,1.907463e+002
1.900546e+002,1.895339e+002
1.910188e+002,1.879015e+002
1.919830e+002,1.860809e+002
1.929473e+002,1.848669e+002
1.939115e+002,1.848245e+002
1.948757e+002,1.861528e+002
1.958400e+002,1.884152e+002
1.968042e+002,1.886779e+002
1.977684e+002,1.869171e+002
1.987327e+002,1.839620e+002
1.996969e+002,1.807948e+002
2.006611e+002,1.785941e+002
2.016254e+002,1.780172e+002
2.025896e+002,1.782305e+002
2.035538e+002,1.787251e+002
2.045181e+002,1.791056e+002
2.054823e+002,1.793124e+002
2.064465e+002,1.788237e+002
2.074108e+002,1.770798e+002
2.083750e+002,1.744014e+002
2.093392e+002,1.716445e+002
2.103035e+002,1.713865e+002
2.112677e+002,1.740740e+002
2.122319e+002,1.766632e+002
2.131962e+002,1.779288e+002
2.141604e+002,1.774111e+002
2.151246e+002,1.762878e+002
2.160889e+002,1.759066e+002
2.170531e+002,1.760000e+002
2.180173e+002,1.759865e+002
2.189816e+002,1.752405e+002
2.199458e+002,1.737415e+002
2.209100e+002,1.724681e+002
2.218743e+002,1.717234e+002
2.228385e+002,1.717640e+002
2.238027e+002,1.727186e+002
2.247670e+002,1.740052e+002
2.257312e+002,1.736830e+002
2.266954e+002,1.718575e+002
2.276597e+002,1.695389e+002
2.286239e+002,1.682250e+002
2.295881e+002,1.695752e+002
2.305524e+002,1.715695e+002
2.315166e+002,1.732850e+002
2.324808e+002,1.743077e+002
2.334451e+002,1.744750e+002
2.344093e+002,1.735172e+002
2.353735e+002,1.723331e+002
2.363378e+002,1.716302e+002
2.373020e+002,1.715601e+002
2.382662e+002,1.719866e+002
2.392305e+002,1.724773e+002
2.401947e+002,1.728652e+002
2.411589e+002,1.729967e+002
2.421232e+002,1.729224e+002
2.430874e+002,1.728674e+002
2.440516e+002,1.738459e+002
2.450159e+002,1.755900e+002
2.459801e+002,1.766967e+002
2.469443e+002,1.766584e+002
2.479086e+002,1.755776e+002
2.488728e+002,1.756251e+002
2.498370e+002,1.760226e+002
2.508013e+002,1.761775e+002
2.517655e+002,1.761683e+002
2.527297e+002,1.762734e+002
2.536940e+002,1.757905e+002
2.546582e+002,1.751921e+002
2.556224e+002,1.754513e+002
2.565867e+002,1.766946e+002
2.575509e+002,1.785909e+002
2.585151e+002,1.802097e+002
2.594794e+002,1.811063e+002
2.604436e+002,1.814170e+002
2.614078e+002,1.814001e+002
2.623721e+002,1.813735e+002
2.633363e+002,1.815117e+002
2.643005e+002,1.812831e+002
2.652648e+002,1.811245e+002
2.662290e+002,1.812450e+002
2.671932e+002,1.815729e+002
2.681575e+002,1.807629e+002
2.691217e+002,1.806788e+002
2.700859e+002,1.821945e+002
2.710502e+002,1.846088e+002
2.720144e+002,1.869381e+002
2.729786e+002,1.888749e+002
2.739429e+002,1.908621e+002
2.749071e+002,1.926554e+002
2.758713e+002,1.939110e+002
2.768356e+002,1.943118e+002
2.777998e+002,1.936390e+002
2.787640e+002,1.922941e+002
2.797283e+002,1.907169e+002
2.806925e+002,1.892673e+002
2.816567e+002,1.884882e+002
2.826210e+002,1.895447e+002
2.835852e+002,1.931302e+002
2.845494e+002,1.962202e+002
2.855137e+002,1.975608e+002
2.864779e+002,1.969025e+002
2.874421e+002,1.955536e+002
2.884064e+002,1.952836e+002
2.893706e+002,1.953125e+002
2.903348e+002,1.953439e+002
2.912991e+002,1.952859e+002
2.922633e+002,1.953201e+002
2.932275e+002,1.948502e+002
2.941918e+002,1.949063e+002
2.951560e+002,1.965983e+002
2.961202e+002,1.999447e+002
2.970845e+002,2.038297e+002
2.980487e+002,2.040731e+002
2.990129e+002,2.021118e+002
2.999772e+002,2.000972e+002
3.009414e+002,1.991489e+002
3.019056e+002,1.995183e+002
3.028699e+002,2.010063e+002
3.038341e+002,2.026693e+002
3.047983e+002,2.038715e+002
3.057626e+002,2.047000e+002
3.067268e+002,2.056146e+002
3.076910e+002,2.067896e+002
3.086553e+002,2.072728e+002
3.096195e+002,2.067788e+002
3.105837e+002,2.053550e+002
3.115480e+002,2.033572e+002
3.125122e+002,2.019967e+002
3.134764e+002,2.028282e+002
3.144407e+002,2.055040e+002
3.154049e+002,2.091113e+002
3.163691e+002,2.125295e+002
3.173334e+002,2.146510e+002
3.182976e+002,2.157668e+002
3.192618e+002,2.163223e+002
3.202261e+002,2.164850e+002
3.211903e+002,2.164680e+002
3.221545e+002,2.166244e+002
3.231188e+002,2.169647e+002
3.240830e+002,2.173585e+002
3.250472e+002,2.177172e+002
3.260115e+002,2.178311e+002
3.269757e+002,2.173536e+002
3.279399e+002,2.164456e+002
3.289042e+002,2.156967e+002
3.298684e+002,2.153130e+002
3.308326e+002,2.155632e+002
3.317969e+002,2.167214e+002
3.327611e+002,2.187670e+002
3.337253e+002,2.200226e+002
3.346896e+002,2.202021e+002
3.356538e+002,2.200425e+002
3.366180e+002,2.206599e+002
3.375823e+002,2.226250e+002
3.385465e+002,2.238223e+002
3.395107e+002,2.248362e+002
3.404750e+002,2.258018e+002
3.414392e+002,2.265143e+002
3.424034e+002,2.259633e+002
3.433677e+002,2.258005e+002
3.443319e+002,2.269163e+002
3.452961e+002,2.283928e+002
3.462604e+002,2.292612e+002
3.472246e+002,2.288684e+002
3.481888e+002,2.284183e+002
3.491531e+002,2.288035e+002
3.501173e+002,2.298699e+002
3.510815e+002,2.311885e+002
3.520458e+002,2.321090e+002
3.530100e+002,2.315881e+002
3.539742e+002,2.311421e+002
3.549385e+002,2.317086e+002
3.559027e+002,2.328746e+002
3.568669e+002,2.336229e+002
3.578312e+002,2.336093e+002
3.587954e+002,2.355400e+002
3.597596e+002,2.388029e+002
3.607239e+002,2.418691e+002
3.616881e+002,2.433977e+002
3.626523e+002,2.433895e+002
3.636166e+002,2.429232e+002
3.645808e+002,2.423546e+002
3.655450e+002,2.418552e+002
3.665093e+002,2.413767e+002
3.674735e+002,2.405781e+002
3.684377e+002,2.394918e+002
3.694020e+002,2.395024e+002
3.703662e+002,2.407736e+002
3.713304e+002,2.428472e+002
3.722947e+002,2.448577e+002
3.732589e+002,2.465679e+002
3.742231e+002,2.473141e+002
3.751874e+002,2.473771e+002
3.761516e+002,2.471654e+002
3.771158e+002,2.469962e+002
3.780801e+002,2.466023e+002
3.790443e+002,2.461228e+002
3.800085e+002,2.455442e+002
3.809728e+002,2.448824e+002
3.819370e+002,2.441726e+002
3.829012e+002,2.434689e+002
3.838655e+002,2.435442e+002
3.848297e+002,2.447084e+002
3.857939e+002,2.462461e+002
3.867582e+002,2.473237e+002
3.877224e+002,2.472280e+002
3.886866e+002,2.469315e+002
3.896509e+002,2.474971e+002
3.906151e+002,2.480820e+002
3.915793e+002,2.487970e+002
3.925436e+002,2.499858e+002
3.935078e+002,2.516321e+002
3.944720e+002,2.520815e+002
3.954363e+002,2.521992e+002
3.964005e+002,2.530020e+002
3.973647e+002,2.550825e+002
3.983290e+002,2.583210e+002
3.992932e+002,2.604731e+002
4.002574e+002,2.608691e+002
4.012217e+002,2.599257e+002
4.021859e+002,2.582805e+002
4.031501e+002,2.566659e+002
4.041144e+002,2.557938e+002
4.050786e+002,2.551819e+002
4.060428e+002,2.546418e+002
4.070071e+002,2.549325e+002
4.079713e+002,2.568341e+002
4.089355e+002,2.606508e+002
4.098998e+002,2.627544e+002
4.108640e+002,2.634283e+002
4.118282e+002,2.634475e+002
4.127925e+002,2.629471e+002
4.137567e+002,2.614449e+002
4.147209e+002,2.603881e+002
4.156852e+002,2.614854e+002
4.166494e+002,2.632493e+002
4.176136e+002,2.649130e+002
4.185779e+002,2.663296e+002
4.195421e+002,2.686742e+002
4.205063e+002,2.715029e+002
4.214706e+002,2.732914e+002
4.224348e+002,2.738624e+002
4.233990e+002,2.733093e+002
4.243633e+002,2.718496e+002
4.253275e+002,2.701538e+002
4.262917e+002,2.698402e+002
4.272560e+002,2.707744e+002
4.282202e+002,2.727115e+002
4.291844e+002,2.751943e+002
4.301487e+002,2.768597e+002
4.311129e+002,2.767725e+002
4.320771e+002,2.763975e+002
4.330414e+002,2.764355e+002
4.340056e+002,2.770327e+002
4.349698e+002,2.775977e+002
4.359341e+002,2.773435e+002
4.368983e+002,2.772083e+002
4.378625e+002,2.776875e+002
4.388268e+002,2.788896e+002
4.397910e+002,2.806324e+002
4.407552e+002,2.827063e+002
4.417195e+002,2.845817e+002
4.426837e+002,2.853004e+002
4.436479e+002,2.850569e+002
4.446122e+002,2.843711e+002
4.455764e+002,2.837695e+002
4.465406e+002,2.823632e+002
4.475049e+002,2.825028e+002
4.484691e+002,2.846893e+002
4.494333e+002,2.880433e+002
4.503976e+002,2.908350e+002
4.513618e+002,2.919889e+002
4.523260e+002,2.918707e+002
4.532903e+002,2.904305e+002
4.542545e+002,2.880574e+002
4.552188e+002,2.855992e+002
4.561830e+002,2.844852e+002
4.571472e+002,2.857373e+002
4.581115e+002,2.871973e+002
4.590757e+002,2.884635e+002
4.600399e+002,2.897369e+002
4.610042e+002,2.915026e+002
4.619684e+002,2.937317e+002
4.629326e+002,2.942780e+002
4.638969e+002,2.930520e+002
4.648611e+002,2.908184e+002
4.658253e+002,2.881506e+002
4.667896e+002,2.849486e+002
4.677538e+002,2.826614e+002
4.687180e+002,2.828624e+002
4.696823e+002,2.845726e+002
4.706465e+002,2.864686e+002
4.716107e+002,2.874200e+002
4.725750e+002,2.875818e+002
4.735392e+002,2.884520e+002
4.745034e+002,2.895848e+002
4.754677e+002,2.900934e+002
4.764319e+002,2.894639e+002
4.773961e+002,2.878621e+002
4.783604e+002,2.874347e+002
4.793246e+002,2.883495e+002
4.802888e+002,2.892230e+002
4.812531e+002,2.898361e+002
4.822173e+002,2.902018e+002
4.831815e+002,2.896644e+002
4.841458e+002,2.877122e+002
4.851100e+002,2.855527e+002
4.860742e+002,2.834362e+002
4.870385e+002,2.814563e+002
4.880027e+002,2.795781e+002
4.889669e+002,2.777545e+002
4.899312e+002,2.767247e+002
4.908954e+002,2.766676e+002
4.918596e+002,2.770415e+002
4.928239e+002,2.772542e+002
4.937881e+002,2.770227e+002
4.947523e+002,2.769941e+002
4.957166e+002,2.758876e+002
4.966808e+002,2.738394e+002
4.976450e+002,2.722244e+002
4.986093e+002,2.725424e+002
4.995735e+002,2.744276e+002
5.005377e+002,2.752280e+002
5.015020e+002,2.747758e+002
5.024662e+002,2.735476e+002
5.034304e+002,2.721941e+002
5.043947e+002,2.713729e+002
5.053589e+002,2.714810e+002
5.063231e+002,2.717634e+002
5.072874e+002,2.721145e+002
5.082516e+002,2.727749e+002
5.092158e+002,2.739861e+002
5.101801e+002,2.758054e+002
5.111443e+002,2.774933e+002
5.121085e+002,2.786580e+002
5.130728e+002,2.797972e+002
5.140370e+002,2.813209e+002
5.150012e+002,2.832727e+002
5.159655e+002,2.846083e+002
5.169297e+002,2.852136e+002
5.178939e+002,2.857736e+002
5.188582e+002,2.859834e+002
5.198224e+002,2.862700e+002
5.207866e+002,2.878782e+002
5.217509e+002,2.926656e+002
5.227151e+002,2.980377e+002
5.236793e+002,3.020762e+002
5.246436e+002,3.046993e+002
5.256078e+002,3.065607e+002
5.265720e+002,3.086946e+002
5.275363e+002,3.116525e+002
5.285005e+002,3.156379e+002
5.294647e+002,3.208457e+002
5.304290e+002,3.264218e+002
5.313932e+002,3.313114e+002
5.323574e+002,3.350024e+002
5.333217e+002,3.389220e+002
5.342859e+002,3.429467e+002
5.352501e+002,3.468685e+002
5.362144e+002,3.508627e+002
5.371786e+002,3.553275e+002
5.381428e+002,3.604873e+002
5.391071e+002,3.661222e+002
5.400713e+002,3.715754e+002
5.410355e+002,3.761405e+002
5.419998e+002,3.795189e+002
5.429640e+002,3.820088e+002
5.439282e+002,3.853802e+002
5.448925e+002,3.906763e+002
5.458567e+002,3.966567e+002
5.468209e+002,4.028262e+002
5.477852e+002,4.085037e+002
5.487494e+002,4.125769e+002
5.497136e+002,4.129756e+002
5.506779e+002,4.127235e+002
5.516421e+002,4.123813e+002
5.526063e+002,4.122101e+002
5.535706e+002,4.125092e+002
5.545348e+002,4.139346e+002
5.554990e+002,4.158826e+002
5.564633e+002,4.173030e+002
5.574275e+002,4.180022e+002
5.583917e+002,4.179100e+002
5.593560e+002,4.171404e+002
5.603202e+002,4.161560e+002
5.612844e+002,4.161672e+002
5.622487e+002,4.167007e+002
5.632129e+002,4.163781e+002
5.641771e+002,4.141278e+002
5.651414e+002,4.098793e+002
5.661056e+002,4.067682e+002
5.670698e+002,4.068584e+002
5.680341e+002,4.072264e+002
5.689983e+002,4.066003e+002
5.699625e+002,4.046322e+002
5.709268e+002,4.016996e+002
5.718910e+002,3.980604e+002
5.728552e+002,3.942736e+002
5.738195e+002,3.911650e+002
5.747837e+002,3.888495e+002
5.757479e+002,3.868739e+002
5.767122e+002,3.843635e+002
5.776764e+002,3.809658e+002
5.786406e+002,3.781146e+002
5.796049e+002,3.758888e+002
5.805691e+002,3.735981e+002
5.815333e+002,3.707336e+002
5.824976e+002,3.673854e+002
5.834618e+002,3.650807e+002
5.844260e+002,3.641587e+002
5.853903e+002,3.632631e+002
5.863545e+002,3.614004e+002
5.873187e+002,3.580442e+002
5.882830e+002,3.533151e+002
5.892472e+002,3.479004e+002
5.902114e+002,3.435944e+002
5.911757e+002,3.412520e+002
5.921399e+002,3.406934e+002
5.931041e+002,3.409259e+002
5.940684e+002,3.402472e+002
5.950326e+002,3.369513e+002
5.959968e+002,3.327826e+002
5.969611e+002,3.288613e+002
5.979253e+002,3.255302e+002
5.988895e+002,3.228374e+002
5.998538e+002,3.209993e+002
6.008180e+002,3.185223e+002
6.017822e+002,3.142019e+002
6.027465e+002,3.098761e+002
6.037107e+002,3.071115e+002
6.046749e+002,3.063334e+002
6.056392e+002,3.057644e+002
6.066034e+002,3.029380e+002
6.075676e+002,2.989960e+002
6.085319e+002,2.944402e+002
6.094961e+002,2.897531e+002
6.104603e+002,2.854878e+002
6.114246e+002,2.825229e+002
6.123888e+002,2.801827e+002
6.133530e+002,2.760286e+002
6.143173e+002,2.702052e+002
6.152815e+002,2.642848e+002
6.162457e+002,2.600900e+002
6.172100e+002,2.583748e+002
6.181742e+002,2.571458e+002
6.191384e+002,2.558009e+002
6.201027e+002,2.538313e+002
6.210669e+002,2.508680e+002
6.220311e+002,2.470382e+002
6.229954e+002,2.434323e+002
6.239596e+002,2.409548e+002
6.249238e+002,2.379779e+002
6.258881e+002,2.337430e+002
6.268523e+002,2.289364e+002
6.278165e+002,2.251088e+002
6.287808e+002,2.241512e+002
6.297450e+002,2.257178e+002
6.307092e+002,2.257137e+002
6.316735e+002,2.234261e+002
6.326377e+002,2.200211e+002
6.336019e+002,2.173448e+002
6.345662e+002,2.166041e+002
6.355304e+002,2.148840e+002
6.364946e+002,2.104946e+002
6.374589e+002,2.063750e+002
6.384231e+002,2.044895e+002
6.393873e+002,2.048816e+002
6.403516e+002,2.049622e+002
6.413158e+002,2.017523e+002
6.422800e+002,1.972321e+002
6.432443e+002,1.932024e+002
6.442085e+002,1.900839e+002
6.451727e+002,1.874397e+002
6.461370e+002,1.842808e+002
6.471012e+002,1.803185e+002
6.480654e+002,1.774055e+002
6.490297e+002,1.763456e+002
6.499939e+002,1.756761e+002
6.509581e+002,1.736318e+002
6.519224e+002,1.694235e+002
6.528866e+002,1.661998e+002
6.538508e+002,1.643463e+002
6.548151e+002,1.622937e+002
6.557793e+002,1.599329e+002
6.567435e+002,1.574354e+002
6.577078e+002,1.548698e+002
6.586720e+002,1.517092e+002
6.596362e+002,1.485681e+002
6.606005e+002,1.466980e+002
6.615647e+002,1.462745e+002
6.625289e+002,1.465190e+002
6.634932e+002,1.460695e+002
6.644574e+002,1.437727e+002
6.654216e+002,1.407346e+002
6.663859e+002,1.372661e+002
6.673501e+002,1.336653e+002
6.683143e+002,1.307792e+002
6.692786e+002,1.292534e+002
6.702428e+002,1.279606e+002
6.712070e+002,1.249106e+002
6.721713e+002,1.223750e+002
6.731355e+002,1.209113e+002
6.740997e+002,1.199867e+002
6.750640e+002,1.188374e+002
6.760282e+002,1.174834e+002
6.769924e+002,1.159430e+002
6.779567e+002,1.138760e+002
6.789209e+002,1.115417e+002
6.798851e+002,1.090477e+002
6.808494e+002,1.061537e+002
6.818136e+002,1.023389e+002
6.827778e+002,9.917444e+001
6.837421e+002,9.868921e+001
6.847063e+002,9.849512e+001
6.856705e+002,9.768542e+001
6.866348e+002,9.627332e+001
6.875990e+002,9.474536e+001
6.885632e+002,9.235022e+001
6.895275e+002,8.888464e+001
6.904917e+002,8.555554e+001
6.914559e+002,8.322131e+001
6.924202e+002,8.222437e+001
6.933844e+002,8.227527e+001
6.943486e+002,8.246033e+001
6.953129e+002,8.143677e+001
6.962771e+002,7.913770e+001
6.972413e+002,7.615405e+001
6.982056e+002,7.323010e+001
6.991698e+002,7.102319e+001
7.001340e+002,6.989270e+001
7.010983e+002,7.015735e+001
7.020625e+002,6.985889e+001
7.030267e+002,6.797302e+001
7.039910e+002,6.525281e+001
7.049552e+002,6.313477e+001
7.059194e+002,6.272754e+001
7.068837e+002,6.239050e+001
7.078479e+002,6.036865e+001
7.088121e+002,5.814575e+001
7.097764e+002,5.655713e+001
7.107406e+002,5.568201e+001
7.117048e+002,5.506213e+001
7.126691e+002,5.464050e+001
7.136333e+002,5.435095e+001
7.145975e+002,5.262158e+001
7.155618e+002,4.916187e+001
7.165260e+002,4.555396e+001
7.174902e+002,4.374634e+001
7.184545e+002,4.412390e+001
7.194187e+002,4.425171e+001
7.203829e+002,4.443665e+001
7.213472e+002,4.441626e+001
7.223114e+002,4.384656e+001
7.232756e+002,4.279370e+001
7.242399e+002,4.184021e+001
7.252041e+002,4.128992e+001
7.261683e+002,4.099561e+001
7.271326e+002,4.118201e+001
7.280968e+002,4.197156e+001
7.290610e+002,4.323352e+001
7.300253e+002,4.457544e+001
7.309895e+002,4.526672e+001
7.319537e+002,4.403333e+001
7.329180e+002,4.108020e+001
7.338822e+002,3.823767e+001
7.348464e+002,3.689612e+001
7.358107e+002,3.718604e+001
7.367749e+002,3.761279e+001
7.377391e+002,3.726379e+001
7.387034e+002,3.705688e+001
7.396676e+002,3.679443e+001
7.406318e+002,3.642676e+001
7.415961e+002,3.612170e+001
7.425603e+002,3.616638e+001
7.435245e+002,3.664783e+001
7.444888e+002,3.745142e+001
7.454530e+002,3.851367e+001
7.464172e+002,3.986670e+001
7.473815e+002,4.145349e+001
7.483457e+002,4.308325e+001
7.493099e+002,4.439514e+001
7.502742e+002,4.526868e+001
7.512384e+002,4.591028e+001
7.522026e+002,4.614819e+001
7.531669e+002,4.651208e+001
7.541311e+002,4.745593e+001
7.550953e+002,4.902942e+001
7.560596e+002,5.078418e+001
7.570238e+002,5.289856e+001
7.579880e+002,5.454773e+001
7.589523e+002,5.515515e+001
7.599165e+002,5.498865e+001
7.608807e+002,5.490747e+001
7.618450e+002,5.585608e+001
7.628092e+002,5.748401e+001
7.637734e+002,5.758972e+001
7.647377e+002,5.618237e+001
7.657019e+002,5.546423e+001
7.666661e+002,5.712170e+001
7.676304e+002,6.090735e+001
7.685946e+002,6.344238e+001
7.695588e+002,6.530286e+001
7.705231e+002,6.653271e+001
7.714873e+002,6.599170e+001
7.724515e+002,6.471997e+001
7.734158e+002,6.461414e+001
7.743800e+002,6.679565e+001
7.753442e+002,6.879675e+001
7.763085e+002,6.852917e+001
7.772727e+002,6.777673e+001
7.782369e+002,6.797021e+001
7.792012e+002,6.915820e+001
7.801654e+002,7.011780e+001
7.811296e+002,6.917639e+001
7.820939e+002,6.641479e+001
7.830581e+002,6.509094e+001
7.840223e+002,6.624194e+001
7.849866e+002,6.857166e+001
7.859508e+002,7.054944e+001
7.869150e+002,7.157605e+001
7.878793e+002,7.134021e+001
7.888435e+002,6.975684e+001
7.898077e+002,6.789465e+001
7.907720e+002,6.611584e+001
7.917362e+002,6.498389e+001
7.927004e+002,6.508655e+001
7.936647e+002,6.667358e+001
7.946289e+002,6.825757e+001
7.955931e+002,6.792700e+001
7.965574e+002,6.599329e+001
7.975216e+002,6.346313e+001
7.984858e+002,6.126282e+001
7.994501e+002,6.011707e+001
8.004143e+002,6.081079e+001
8.013785e+002,6.432898e+001
8.023428e+002,6.672168e+001
8.033070e+002,6.757971e+001
8.042712e+002,6.718286e+001
8.052355e+002,6.557214e+001
8.061997e+002,6.255774e+001
8.071639e+002,5.955591e+001
8.081282e+002,5.838257e+001
8.090924e+002,5.771228e+001
8.100566e+002,5.649622e+001
8.110209e+002,5.482837e+001
8.119851e+002,5.349890e+001
8.129493e+002,5.323071e+001
8.139136e+002,5.325806e+001
8.148778e+002,5.197400e+001
8.158420e+002,4.981006e+001
8.168063e+002,4.744617e+001
8.177705e+002,4.503528e+001
8.187347e+002,4.258972e+001
8.196990e+002,4.076685e+001
8.206632e+002,4.028601e+001
8.216274e+002,3.872571e+001
8.225917e+002,3.589294e+001
8.235559e+002,3.304553e+001
8.245201e+002,3.105920e+001
8.254844e+002,2.981470e+001
8.264486e+002,2.851587e+001
8.274128e+002,2.687671e+001
8.283771e+002,2.553430e+001
8.293413e+002,2.480139e+001
8.303055e+002,2.457007e+001
8.312698e+002,2.452490e+001
8.322340e+002,2.435730e+001
8.331982e+002,2.397400e+001
8.341625e+002,2.293018e+001
8.351267e+002,2.198071e+001
8.360909e+002,2.122180e+001
8.370552e+002,1.999548e+001
8.380194e+002,1.805566e+001
8.389836e+002,1.620337e+001
8.399479e+002,1.581116e+001
8.409121e+002,1.576782e+001
8.418763e+002,1.445752e+001
8.428406e+002,1.228723e+001
8.438048e+002,1.034314e+001
8.447690e+002,9.443604e+000
8.457333e+002,9.495239e+000
8.466975e+002,9.423584e+000
8.476617e+002,9.245850e+000
8.486260e+002,9.596313e+000
8.495902e+002,1.006580e+001
8.505544e+002,1.016956e+001
8.515187e+002,9.699341e+000
8.524829e+002,8.880981e+000
8.534471e+002,8.153076e+000
8.544114e+002,8.571655e+000
8.553756e+002,8.812500e+000
8.563398e+002,7.833862e+000
8.573041e+002,5.984741e+000
8.582683e+002,4.312378e+000
8.592325e+002,3.516724e+000
8.601968e+002,3.186401e+000
8.611610e+002,2.787109e+000
8.621252e+002,2.327271e+000
8.630895e+002,1.828979e+000
8.640537e+002,1.587036e+000
8.650179e+002,1.950439e+000
8.659822e+002,2.968872e+000
8.669464e+002,3.940918e+000
8.679106e+002,4.387329e+000
8.688749e+002,4.172607e+000
8.698391e+002,3.189819e+000
8.708033e+002,2.091919e+000
8.717676e+002,1.708618e+000
8.727318e+002,2.128174e+000
8.736960e+002,2.030518e+000
8.746603e+002,2.128540e+000
8.756245e+002,3.400879e+000
8.765887e+002,4.931030e+000
8.775530e+002,5.326904e+000
8.785172e+002,3.955688e+000
8.794814e+002,1.890381e+000
8.804457e+002,1.494141e+000
8.814099e+002,2.380615e+000
8.823741e+002,3.879028e+000
8.833384e+002,6.148560e+000
8.843026e+002,8.063477e+000
8.852668e+002,8.368774e+000
8.862311e+002,7.205444e+000
8.871953e+002,5.828857e+000
8.881595e+002,5.169922e+000
8.891238e+002,4.781494e+000
8.900880e+002,3.600342e+000
8.910522e+002,1.813721e+000
8.920165e+002,4.447021e-001
8.929807e+002,4.018555e-001
8.939449e+002,1.536499e+000
8.949092e+002,3.818604e+000
8.958734e+002,7.122070e+000
8.968376e+002,9.675781e+000
8.978019e+002,1.036230e+001
8.987661e+002,9.450317e+000
8.997303e+002,8.194824e+000
9.006946e+002,6.500366e+000
9.016588e+002,5.204224e+000
9.026230e+002,4.726318e+000
9.035873e+002,5.365723e+000
9.045515e+002,7.313477e+000
9.055157e+002,1.029639e+001
9.064800e+002,1.362781e+001
9.074442e+002,1.703882e+001
9.084084e+002,1.976123e+001
9.093727e+002,2.096899e+001
9.103369e+002,2.089978e+001
9.113011e+002,2.043823e+001
9.122654e+002,2.009412e+001
9.132296e+002,1.998291e+001
9.141938e+002,2.067664e+001
9.151581e+002,2.381030e+001
9.161223e+002,2.624023e+001
9.170865e+002,2.740417e+001
9.180508e+002,2.857178e+001
9.190150e+002,3.047534e+001
9.199792e+002,3.287488e+001
9.209435e+002,3.515723e+001
9.219077e+002,3.704468e+001
9.228719e+002,3.828894e+001
9.238362e+002,3.949072e+001
9.248004e+002,4.118530e+001
9.257646e+002,4.350391e+001
9.267289e+002,4.620007e+001
9.276931e+002,4.885364e+001
9.286573e+002,5.094568e+001
9.296216e+002,5.182227e+001
9.305858e+002,5.244775e+001
9.315500e+002,5.315564e+001
9.325143e+002,5.444836e+001
9.334785e+002,5.715186e+001
9.344427e+002,6.149585e+001
9.354070e+002,6.476550e+001
9.363712e+002,6.377002e+001
9.373354e+002,6.303857e+001
9.382997e+002,6.476147e+001
9.392639e+002,6.839722e+001
9.402281e+002,7.266040e+001
9.411924e+002,7.659546e+001
9.421566e+002,7.981653e+001
9.431208e+002,8.137854e+001
9.440851e+002,8.113196e+001
9.450493e+002,8.066980e+001
9.460135e+002,8.090356e+001
9.469778e+002,8.174683e+001
9.479420e+002,8.263293e+001
9.489063e+002,8.327893e+001
9.498705e+002,8.412964e+001
9.508347e+002,8.545190e+001
9.517990e+002,8.667957e+001
9.527632e+002,8.750757e+001
9.537274e+002,8.799976e+001
9.546917e+002,8.847900e+001
9.556559e+002,8.918787e+001
9.566201e+002,8.978284e+001
9.575844e+002,8.923474e+001
9.585486e+002,8.783459e+001
9.595128e+002,8.653503e+001
9.604771e+002,8.594727e+001
9.614413e+002,8.636792e+001
9.624055e+002,8.794019e+001
9.633698e+002,9.064502e+001
9.643340e+002,9.283484e+001
9.652982e+002,9.348352e+001
9.662625e+002,9.286597e+001
9.672267e+002,9.158423e+001
9.681909e+002,9.123828e+001
9.691552e+002,9.282056e+001
9.701194e+002,9.571765e+001
9.710836e+002,9.810974e+001
9.720479e+002,9.891821e+001
9.730121e+002,9.883826e+001
9.739763e+002,9.894861e+001
9.749406e+002,1.001663e+002
9.759048e+002,1.027994e+002
9.768690e+002,1.066138e+002
9.778333e+002,1.110209e+002
9.787975e+002,1.150825e+002
9.797617e+002,1.173683e+002
9.807260e+002,1.195526e+002
9.816902e+002,1.233289e+002
9.826544e+002,1.280271e+002
9.836187e+002,1.323265e+002
9.845829e+002,1.357061e+002
9.855471e+002,1.385817e+002
9.865114e+002,1.408124e+002
9.874756e+002,1.418724e+002
9.884398e+002,1.417014e+002
9.894041e+002,1.408822e+002
9.903683e+002,1.401758e+002
9.913325e+002,1.399467e+002
9.922968e+002,1.398898e+002
9.932610e+002,1.394232e+002
9.942252e+002,1.390677e+002
9.951895e+002,1.394692e+002
9.961537e+002,1.403715e+002
9.971179e+002,1.411262e+002
9.980822e+002,1.415239e+002
9.990464e+002,1.419258e+002
1.000011e+003,1.427549e+002
1.000975e+003,1.433475e+002
1.001939e+003,1.435371e+002
1.002903e+003,1.440732e+002
1.003868e+003,1.443376e+002
1.004832e+003,1.434818e+002
1.005796e+003,1.417089e+002
1.006760e+003,1.404908e+002
1.007724e+003,1.414652e+002
1.008689e+003,1.442727e+002
1.009653e+003,1.473718e+002
1.010617e+003,1.508680e+002
1.011581e+003,1.532413e+002
1.012546e+003,1.537068e+002
1.013510e+003,1.530801e+002
1.014474e+003,1.531169e+002
1.015438e+003,1.539193e+002
1.016403e+003,1.559042e+002
1.017367e+003,1.587896e+002
1.018331e+003,1.615039e+002
1.019295e+003,1.636536e+002
1.020260e+003,1.656364e+002
1.021224e+003,1.682330e+002
1.022188e+003,1.719447e+002
1.023152e+003,1.764084e+002
1.024116e+003,1.801805e+002
1.025081e+003,1.830367e+002
1.026045e+003,1.855564e+002
1.027009e+003,1.877759e+002
1.027973e+003,1.898878e+002
1.028938e+003,1.923198e+002
1.029902e+003,1.952738e+002
1.030866e+003,1.989509e+002
1.031830e+003,2.040997e+002
1.032795e+003,2.094119e+002
1.033759e+003,2.138173e+002
1.034723e+003,2.173473e+002
1.035687e+003,2.206899e+002
1.036651e+003,2.244857e+002
1.037616e+003,2.289130e+002
1.038580e+003,2.339706e+002
1.039544e+003,2.387177e+002
1.040508e+003,2.413616e+002
1.041473e+003,2.416337e+002
1.042437e+003,2.428363e+002
1.043401e+003,2.484178e+002
1.044365e+003,2.578857e+002
1.045330e+003,2.651279e+002
1.046294e+003,2.676929e+002
1.047258e+003,2.688971e+002
1.048222e+003,2.696908e+002
1.049187e+003,2.708312e+002
1.050151e+003,2.728339e+002
1.051115e+003,2.757275e+002
1.052079e+003,2.792467e+002
1.053043e+003,2.833224e+002
1.054008e+003,2.885713e+002
1.054972e+003,2.947142e+002
1.055936e+003,3.000959e+002
1.056900e+003,3.040688e+002
1.057865e+003,3.072971e+002
1.058829e+003,3.106569e+002
1.059793e+003,3.145548e+002
1.060757e+003,3.191240e+002
1.061722e+003,3.247965e+002
1.062686e+003,3.304198e+002
1.063650e+003,3.359275e+002
1.064614e+003,3.418785e+002
1.065578e+003,3.476045e+002
1.066543e+003,3.521370e+002
1.067507e+003,3.555881e+002
1.068471e+003,3.596370e+002
1.069435e+003,3.658629e+002
1.070400e+003,3.729197e+002
1.071364e+003,3.784020e+002
1.072328e+003,3.815795e+002
1.073292e+003,3.840813e+002
1.074257e+003,3.880691e+002
1.075221e+003,3.939467e+002
1.076185e+003,3.995056e+002
1.077149e+003,4.043888e+002
1.078114e+003,4.089545e+002
1.079078e+003,4.126787e+002
1.080042e+003,4.167834e+002
1.081006e+003,4.216594e+002
1.081970e+003,4.267538e+002
1.082935e+003,4.316975e+002
1.083899e+003,4.369847e+002
1.084863e+003,4.428431e+002
1.085827e+003,4.478213e+002
1.086792e+003,4.510284e+002
1.087756e+003,4.527192e+002
1.088720e+003,4.533650e+002
1.089684e+003,4.538680e+002
1.090649e+003,4.551917e+002
1.091613e+003,4.576458e+002
1.092577e+003,4.602355e+002
1.093541e+003,4.616014e+002
1.094505e+003,4.616082e+002
1.095470e+003,4.605934e+002
1.096434e+003,4.594841e+002
1.097398e+003,4.593523e+002
1.098362e+003,4.600844e+002
1.099327e+003,4.599476e+002
1.100291e+003,4.569138e+002
1.101255e+003,4.523862e+002
1.102219e+003,4.506909e+002
1.103184e+003,4.508206e+002
1.104148e+003,4.493884e+002
1.105112e+003,4.454579e+002
1.106076e+003,4.406061e+002
1.107041e+003,4.368894e+002
1.108005e+003,4.344832e+002
1.108969e+003,4.315336e+002
1.109933e+003,4.261656e+002
1.110897e+003,4.195042e+002
1.111862e+003,4.123322e+002
1.112826e+003,4.056107e+002
1.113790e+003,4.000957e+002
1.114754e+003,3.958704e+002
1.115719e+003,3.924114e+002
1.116683e+003,3.891721e+002
1.117647e+003,3.852177e+002
1.118611e+003,3.789180e+002
1.119576e+003,3.712885e+002
1.120540e+003,3.648007e+002
1.121504e+003,3.597012e+002
1.122468e+003,3.548013e+002
1.123432e+003,3.492207e+002
1.124397e+003,3.432109e+002
1.125361e+003,3.358228e+002
1.126325e+003,3.275703e+002
1.127289e+003,3.207433e+002
1.128254e+003,3.156753e+002
1.129218e+003,3.112303e+002
1.130182e+003,3.061221e+002
1.131146e+003,3.000459e+002
1.132111e+003,2.938538e+002
1.133075e+003,2.885139e+002
1.134039e+003,2.840858e+002
1.135003e+003,2.804585e+002
1.135968e+003,2.777460e+002
1.136932e+003,2.742267e+002
1.137896e+003,2.688796e+002
1.138860e+003,2.625742e+002
1.139824e+003,2.571277e+002
1.140789e+003,2.531008e+002
1.141753e+003,2.495482e+002
1.142717e+003,2.446658e+002
1.143681e+003,2.386504e+002
1.144646e+003,2.323378e+002
1.145610e+003,2.264473e+002
1.146574e+003,2.216240e+002
1.147538e+003,2.182394e+002
1.148503e+003,2.158514e+002
1.149467e+003,2.131443e+002
1.150431e+003,2.093064e+002
1.151395e+003,2.046108e+002
1.152359e+003,1.986726e+002
1.153324e+003,1.934490e+002
1.154288e+003,1.900162e+002
1.155252e+003,1.874529e+002
1.156216e+003,1.842465e+002
1.157181e+003,1.803755e+002
1.158145e+003,1.766678e+002
1.159109e+003,1.732603e+002
1.160073e+003,1.698010e+002
1.161038e+003,1.663535e+002
1.162002e+003,1.626792e+002
1.162966e+003,1.582227e+002
1.163930e+003,1.529194e+002
1.164895e+003,1.477681e+002
1.165859e+003,1.447150e+002
1.166823e+003,1.449302e+002
1.167787e+003,1.432390e+002
1.168751e+003,1.362848e+002
1.169716e+003,1.298090e+002
1.170680e+003,1.259130e+002
1.171644e+003,1.234534e+002
1.172608e+003,1.215751e+002
1.173573e+003,1.208247e+002
1.174537e+003,1.206815e+002
1.175501e+003,1.193885e+002
1.176465e+003,1.167321e+002
1.177430e+003,1.138351e+002
1.178394e+003,1.110515e+002
1.179358e+003,1.082876e+002
1.180322e+003,1.051416e+002
1.181286e+003,1.012900e+002
1.182251e+003,9.672351e+001
1.183215e+003,9.180127e+001
1.184179e+003,8.813062e+001
1.185143e+003,8.696191e+001
1.186108e+003,8.624084e+001
1.187072e+003,8.488623e+001
1.188036e+003,8.301294e+001
1.189000e+003,8.132483e+001
1.189965e+003,8.004956e+001
1.190929e+003,7.848914e+001
1.191893e+003,7.575623e+001
1.192857e+003,7.233923e+001
1.193822e+003,6.965637e+001
1.194786e+003,6.780066e+001
1.195750e+003,6.606116e+001
1.196714e+003,6.376782e+001
1.197678e+003,6.117786e+001
1.198643e+003,5.930566e+001
1.199607e+003,5.843396e+001
1.200571e+003,5.657080e+001
1.201535e+003,5.315466e+001
1.202500e+003,5.130762e+001
1.203464e+003,5.123889e+001
1.204428e+003,5.085571e+001
1.205392e+003,4.902209e+001
1.206357e+003,4.591699e+001
1.207321e+003,4.226355e+001
1.208285e+003,3.863574e+001
1.209249e+003,3.553137e+001
1.210214e+003,3.355908e+001
1.211178e+003,3.312219e+001
1.212142e+003,3.330334e+001
1.213106e+003,3.351050e+001
1.214070e+003,3.338391e+001
1.215035e+003,3.253687e+001
1.215999e+003,3.099365e+001
1.216963e+003,2.932202e+001
1.217927e+003,2.807031e+001
1.218892e+003,2.674158e+001
1.219856e+003,2.490076e+001
1.220820e+003,2.334412e+001
1.221784e+003,2.240674e+001
1.222749e+003,2.204736e+001
1.223713e+003,2.201709e+001
1.224677e+003,2.197192e+001
1.225641e+003,2.158582e+001
1.226605e+003,2.067761e+001
1.227570e+003,1.927246e+001
1.228534e+003,1.776062e+001
1.229498e+003,1.661780e+001
1.230462e+003,1.612646e+001
1.231427e+003,1.597876e+001
1.232391e+003,1.556750e+001
1.233355e+003,1.479285e+001
1.234319e+003,1.412146e+001
1.235284e+003,1.408057e+001
1.236248e+003,1.481091e+001
1.237212e+003,1.539990e+001
1.238176e+003,1.446484e+001
1.239141e+003,1.274341e+001
1.240105e+003,1.137622e+001
1.241069e+003,1.072375e+001
1.242033e+003,1.081189e+001
1.242997e+003,1.168250e+001
1.243962e+003,1.277930e+001
1.244926e+003,1.218237e+001
1.245890e+003,8.710205e+000
1.246854e+003,7.234497e+000
1.247819e+003,8.636963e+000
1.248783e+003,1.022864e+001
1.249747e+003,1.133276e+001
1.250711e+003,1.193079e+001
1.251676e+003,1.166187e+001
1.252640e+003,1.034839e+001
1.253604e+003,8.891479e+000
1.254568e+003,8.668213e+000
1.255532e+003,9.468384e+000
1.256497e+003,9.313477e+000
1.257461e+003,8.272217e+000
1.258425e+003,7.915283e+000
1.259389e+003,8.611328e+000
1.260354e+003,9.688232e+000
1.261318e+003,1.074487e+001
1.262282e+003,1.176941e+001
1.263246e+003,1.204419e+001
1.264211e+003,1.113293e+001
1.265175e+003,1.033093e+001
1.266139e+003,1.059351e+001
1.267103e+003,1.101086e+001
1.268068e+003,1.057874e+001
1.269032e+003,9.182251e+000
1.269996e+003,7.251709e+000
1.270960e+003,5.453613e+000
1.271924e+003,4.666016e+000
1.272889e+003,5.850464e+000
1.273853e+003,9.069214e+000
1.274817e+003,1.088928e+001
1.275781e+003,9.041260e+000
1.276746e+003,6.758789e+000
1.277710e+003,6.485718e+000
1.278674e+003,7.477539e+000
1.279638e+003,8.006958e+000
1.280603e+003,7.869995e+000
1.281567e+003,8.596313e+000
1.282531e+003,1.098877e+001
1.283495e+003,1.292871e+001
1.284459e+003,1.175305e+001
1.285424e+003,9.006348e+000
1.286388e+003,7.263550e+000
1.287352e+003,7.126953e+000
1.288316e+003,7.445313e+000
1.289281e+003,7.436401e+000
1.290245e+003,7.479492e+000
1.291209e+003,7.934082e+000
1.292173e+003,8.056152e+000
1.293138e+003,7.906494e+000
1.294102e+003,8.146729e+000
1.295066e+003,8.441528e+000
1.296030e+003,8.821655e+000
1.296995e+003,9.180054e+000
1.297959e+003,9.213379e+000
1.298923e+003,8.991577e+000
1.299887e+003,8.905151e+000
1.300851e+003,8.938232e+000
1.301816e+003,8.582275e+000
1.302780e+003,8.554321e+000
1.303744e+003,1.039185e+001
1.304708e+003,1.143701e+001
1.305673e+003,9.998901e+000
1.306637e+003,8.882690e+000
1.307601e+003,9.433594e+000
1.308565e+003,1.039197e+001
1.309530e+003,1.062256e+001
1.310494e+003,1.092554e+001
1.311458e+003,1.125500e+001
1.312422e+003,1.056006e+001
1.313386e+003,9.831665e+000
1.314351e+003,9.833862e+000
1.315315e+003,1.024646e+001
1.316279e+003,1.080334e+001
1.317243e+003,1.143237e+001
1.318208e+003,1.186548e+001
1.319172e+003,1.160046e+001
1.320136e+003,1.063428e+001
1.321100e+003,1.039758e+001
1.322065e+003,1.259094e+001
1.323029e+003,1.417065e+001
1.323993e+003,1.380811e+001
1.324957e+003,1.316235e+001
1.325922e+003,1.211279e+001
1.326886e+003,1.041284e+001
1.327850e+003,8.872314e+000
1.328814e+003,8.421875e+000
1.329778e+003,8.833984e+000
1.330743e+003,9.291992e+000
1.331707e+003,9.913330e+000
1.332671e+003,1.118262e+001
1.333635e+003,1.249329e+001
1.334600e+003,1.323022e+001
1.335564e+003,1.330762e+001
1.336528e+003,1.274719e+001
1.337492e+003,1.162659e+001
1.338457e+003,1.051807e+001
1.339421e+003,1.032751e+001
1.340385e+003,1.129041e+001
1.341349e+003,1.241797e+001
1.342313e+003,1.244470e+001
1.343278e+003,1.217676e+001
1.344242e+003,1.280798e+001
1.345206e+003,1.375806e+001
1.346170e+003,1.387146e+001
1.347135e+003,1.311133e+001
1.348099e+003,1.260327e+001
1.349063e+003,1.326172e+001
1.350027e+003,1.473108e+001
1.350992e+003,1.607373e+001
1.351956e+003,1.747302e+001
1.352920e+003,1.751013e+001
1.353884e+003,1.588281e+001
1.354849e+003,1.440186e+001
1.355813e+003,1.387451e+001
1.356777e+003,1.435962e+001
1.357741e+003,1.586560e+001
1.358705e+003,1.772266e+001
1.359670e+003,1.823560e+001
1.360634e+003,1.607080e+001
1.361598e+003,1.237866e+001
1.362562e+003,1.013672e+001
1.363527e+003,1.035071e+001
1.364491e+003,1.202917e+001
1.365455e+003,1.463538e+001
1.366419e+003,1.586035e+001
1.367384e+003,1.438245e+001
1.368348e+003,1.176074e+001
1.369312e+003,1.046838e+001
1.370276e+003,1.121143e+001
1.371240e+003,1.322327e+001
1.372205e+003,1.563257e+001
1.373169e+003,1.723889e+001
1.374133e+003,1.748267e+001
1.375097e+003,1.669336e+001
1.376062e+003,1.545361e+001
1.377026e+003,1.424438e+001
1.377990e+003,1.361987e+001
1.378954e+003,1.426965e+001
1.379919e+003,1.595093e+001
1.380883e+003,1.695642e+001
1.381847e+003,1.615100e+001
1.382811e+003,1.606042e+001
1.383776e+003,1.712622e+001
1.384740e+003,1.733203e+001
1.385704e+003,1.760168e+001
1.386668e+003,1.806250e+001
1.387632e+003,1.780115e+001
1.388597e+003,1.697644e+001
1.389561e+003,1.662341e+001
1.390525e+003,1.730396e+001
1.391489e+003,1.861572e+001
1.392454e+003,1.999597e+001
1.393418e+003,2.107666e+001
1.394382e+003,2.088013e+001
1.395346e+003,1.907886e+001
1.396311e+003,1.717151e+001
1.397275e+003,1.636963e+001
1.398239e+003,1.703162e+001
1.399203e+003,1.848584e+001
1.400167e+003,1.982410e+001
1.401132e+003,2.055322e+001
1.402096e+003,2.054028e+001
1.403060e+003,1.989880e+001
1.404024e+003,1.971704e+001
1.404989e+003,2.053442e+001
1.405953e+003,2.067383e+001
1.406917e+003,1.944714e+001
1.407881e+003,1.836133e+001
1.408846e+003,1.844934e+001
1.409810e+003,1.871484e+001
1.410774e+003,1.835596e+001
1.411738e+003,1.820715e+001
1.412703e+003,1.929578e+001
1.413667e+003,2.069971e+001
1.414631e+003,2.076001e+001
1.415595e+003,1.877856e+001
1.416559e+003,1.733313e+001
1.417524e+003,1.873083e+001
1.418488e+003,2.157971e+001
1.419452e+003,2.379309e+001
1.420416e+003,2.446912e+001
1.421381e+003,2.359705e+001
1.422345e+003,2.150061e+001
1.423309e+003,1.907922e+001
1.424273e+003,1.797253e+001
1.425238e+003,1.880493e+001
1.426202e+003,2.003918e+001
1.427166e+003,2.072510e+001
1.428130e+003,2.166418e+001
1.429094e+003,2.343811e+001
1.430059e+003,2.442102e+001
1.431023e+003,2.382959e+001
1.431987e+003,2.265930e+001
1.432951e+003,2.177637e+001
1.433916e+003,2.127063e+001
1.434880e+003,2.151367e+001
1.435844e+003,2.318115e+001
1.436808e+003,2.558044e+001
1.437773e+003,2.652991e+001
1.438737e+003,2.592285e+001
1.439701e+003,2.543945e+001
1.440665e+003,2.471167e+001
1.441630e+003,2.399304e+001
1.442594e+003,2.408105e+001
1.443558e+003,2.495044e+001
1.444522e+003,2.609937e+001
1.445486e+003,2.719666e+001
1.446451e+003,2.794568e+001
1.447415e+003,2.814978e+001
1.448379e+003,2.823535e+001
1.449343e+003,2.847937e+001
1.450308e+003,2.837781e+001
1.451272e+003,2.769849e+001
1.452236e+003,2.676477e+001
1.453200e+003,2.607959e+001
1.454165e+003,2.608252e+001
1.455129e+003,2.675549e+001
1.456093e+003,2.754712e+001
1.457057e+003,2.790771e+001
1.458021e+003,2.792944e+001
1.458986e+003,2.808362e+001
1.459950e+003,2.779663e+001
1.460914e+003,2.647754e+001
1.461878e+003,2.544641e+001
1.462843e+003,2.545581e+001
1.463807e+003,2.584009e+001
1.464771e+003,2.574231e+001
1.465735e+003,2.551160e+001
1.466700e+003,2.637781e+001
1.467664e+003,2.884167e+001
1.468628e+003,3.168274e+001
1.469592e+003,3.306140e+001
1.470557e+003,3.266138e+001
1.471521e+003,3.126917e+001
1.472485e+003,2.957190e+001
1.473449e+003,2.925842e+001
1.474413e+003,3.067603e+001
1.475378e+003,3.175671e+001
1.476342e+003,3.057568e+001
1.477306e+003,2.803284e+001
1.478270e+003,2.624719e+001
1.479235e+003,2.593481e+001
1.480199e+003,2.605225e+001
1.481163e+003,2.567065e+001
1.482127e+003,2.560828e+001
1.483092e+003,2.745825e+001
1.484056e+003,3.145459e+001
1.485020e+003,3.399902e+001
1.485984e+003,3.418091e+001
1.486948e+003,3.427185e+001
1.487913e+003,3.548340e+001
1.488877e+003,3.725049e+001
1.489841e+003,3.845044e+001
1.490805e+003,3.861316e+001
1.491770e+003,3.828162e+001
1.492734e+003,3.815234e+001
1.493698e+003,3.789832e+001
1.494662e+003,3.656812e+001
1.495627e+003,3.431299e+001
1.496591e+003,3.283423e+001
1.497555e+003,3.311816e+001
1.498519e+003,3.480823e+001
1.499484e+003,3.770630e+001
1.500448e+003,4.029065e+001
1.501412e+003,4.108984e+001
1.502376e+003,4.066272e+001
1.503340e+003,4.096094e+001
1.504305e+003,4.285669e+001
1.505269e+003,4.536853e+001
1.506233e+003,4.749438e+001
1.507197e+003,4.810730e+001
1.508162e+003,4.594592e+001
1.509126e+003,4.300879e+001
1.510090e+003,4.332764e+001
1.511054e+003,4.663672e+001
1.512019e+003,4.847363e+001
1.512983e+003,4.622253e+001
1.513947e+003,4.283826e+001
1.514911e+003,4.169263e+001
1.515875e+003,4.273486e+001
1.516840e+003,4.421155e+001
1.517804e+003,4.546716e+001
1.518768e+003,4.627307e+001
1.519732e+003,4.661938e+001
1.520697e+003,4.637769e+001
1.521661e+003,4.526172e+001
1.522625e+003,4.384546e+001
1.523589e+003,4.270654e+001
1.524554e+003,4.151831e+001
1.525518e+003,3.972070e+001
1.526482e+003,3.742493e+001
1.527446e+003,3.535278e+001
1.528411e+003,3.427441e+001
1.529375e+003,3.443799e+001
1.530339e+003,3.542102e+001
1.531303e+003,3.644348e+001
1.532267e+003,3.690527e+001
1.533232e+003,3.652759e+001
1.534196e+003,3.536182e+001
1.535160e+003,3.434375e+001
1.536124e+003,3.360583e+001
1.537089e+003,3.299890e+001
1.538053e+003,3.282019e+001
1.539017e+003,3.331616e+001
1.539981e+003,3.400439e+001
1.540946e+003,3.393970e+001
1.541910e+003,3.238721e+001
1.542874e+003,2.988440e+001
1.543838e+003,2.879138e+001
1.544802e+003,3.036890e+001
1.545767e+003,3.274744e+001
1.546731e+003,3.489661e+001
1.547695e+003,3.566858e+001
1.548659e+003,3.446167e+001
1.549624e+003,3.288330e+001
1.550588e+003,3.217053e+001
1.551552e+003,3.210791e+001
1.552516e+003,3.227661e+001
1.553481e+003,3.251123e+001
1.554445e+003,3.222424e+001
1.555409e+003,3.089929e+001
1.556373e+003,2.982751e+001
1.557338e+003,3.132336e+001
1.558302e+003,3.456311e+001
1.559266e+003,3.570178e+001
1.560230e+003,3.447290e+001
1.561194e+003,3.265002e+001
1.562159e+003,3.118506e+001
1.563123e+003,3.086743e+001
1.564087e+003,3.175134e+001
1.565051e+003,3.282092e+001
1.566016e+003,3.276318e+001
1.566980e+003,3.137085e+001
1.567944e+003,2.990112e+001
1.568908e+003,2.982239e+001
1.569873e+003,3.121606e+001
1.570837e+003,3.299036e+001
1.571801e+003,3.495837e+001
1.572765e+003,3.606702e+001
1.573729e+003,3.505847e+001
1.574694e+003,3.370850e+001
1.575658e+003,3.290210e+001
1.576622e+003,3.300293e+001
1.577586e+003,3.444519e+001
1.578551e+003,3.605188e+001
1.579515e+003,3.611047e+001
1.580479e+003,3.477478e+001
1.581443e+003,3.376575e+001
1.582408e+003,3.388123e+001
1.583372e+003,3.438074e+001
1.584336e+003,3.509473e+001
1.585300e+003,3.672180e+001
1.586265e+003,3.788416e+001
1.587229e+003,3.809448e+001
1.588193e+003,3.789941e+001
1.589157e+003,3.752625e+001
1.590121e+003,3.707349e+001
1.591086e+003,3.600769e+001
1.592050e+003,3.539319e+001
1.593014e+003,3.649292e+001
1.593978e+003,3.857910e+001
1.594943e+003,3.995227e+001
1.595907e+003,4.024316e+001
1.596871e+003,4.039893e+001
1.597835e+003,4.081921e+001
1.598800e+003,4.078162e+001
1.599764e+003,4.008484e+001
1.600728e+003,3.894788e+001
1.601692e+003,3.775024e+001
1.602656e+003,3.726379e+001
1.603621e+003,3.780225e+001
1.604585e+003,3.902942e+001
1.605549e+003,3.974500e+001
1.606513e+003,3.845593e+001
1.607478e+003,3.583032e+001
1.608442e+003,3.444250e+001
1.609406e+003,3.557739e+001
1.610370e+003,3.741479e+001
1.611335e+003,3.736951e+001
1.612299e+003,3.587158e+001
1.613263e+003,3.662524e+001
1.614227e+003,4.167151e+001
1.615192e+003,4.435034e+001
1.616156e+003,4.238245e+001
1.617120e+003,4.058130e+001
1.618084e+003,3.906763e+001
1.619048e+003,3.838672e+001
1.620013e+003,3.997717e+001
1.620977e+003,4.236511e+001
1.621941e+003,4.284302e+001
1.622905e+003,4.083972e+001
1.623870e+003,3.786963e+001
1.624834e+003,3.544202e+001
1.625798e+003,3.427502e+001
1.626762e+003,3.460657e+001
1.627727e+003,3.566516e+001
1.628691e+003,3.650293e+001
1.629655e+003,3.822327e+001
1.630619e+003,3.937207e+001
1.631583e+003,3.946277e+001
1.632548e+003,3.959021e+001
1.633512e+003,4.019678e+001
1.634476e+003,4.056055e+001
1.635440e+003,3.959192e+001
1.636405e+003,3.751990e+001
1.637369e+003,3.590430e+001
1.638333e+003,3.584863e+001
1.639297e+003,3.684607e+001
1.640262e+003,3.769458e+001
1.641226e+003,3.812683e+001
1.642190e+003,3.857922e+001
1.643154e+003,3.854321e+001
1.644119e+003,3.831946e+001
1.645083e+003,3.970715e+001
1.646047e+003,4.062939e+001
1.647011e+003,3.930603e+001
1.647975e+003,3.719604e+001
1.648940e+003,3.647302e+001
1.649904e+003,3.669092e+001
1.650868e+003,3.574438e+001
1.651832e+003,3.367810e+001
1.652797e+003,3.287866e+001
1.653761e+003,3.459204e+001
1.654725e+003,3.692639e+001
1.655689e+003,3.722168e+001
1.656654e+003,3.584033e+001
1.657618e+003,3.580310e+001
1.658582e+003,3.778809e+001
1.659546e+003,3.892322e+001
1.660510e+003,3.940186e+001
1.661475e+003,3.916077e+001
1.662439e+003,3.726855e+001
1.663403e+003,3.603186e+001
1.664367e+003,3.723645e+001
1.665332e+003,3.950342e+001
1.666296e+003,4.084534e+001
1.667260e+003,4.100378e+001
1.668224e+003,4.091821e+001
1.669189e+003,4.132043e+001
1.670153e+003,4.207825e+001
1.671117e+003,4.201685e+001
1.672081e+003,4.020776e+001
1.673046e+003,3.926819e+001
1.674010e+003,4.112939e+001
1.674974e+003,4.244910e+001
1.675938e+003,4.234338e+001
1.676902e+003,4.163892e+001
1.677867e+003,3.965869e+001
1.678831e+003,3.748413e+001
1.679795e+003,3.629163e+001
1.680759e+003,3.638989e+001
1.681724e+003,3.788953e+001
1.682688e+003,4.047803e+001
1.683652e+003,4.252551e+001
1.684616e+003,4.240283e+001
1.685581e+003,4.115271e+001
1.686545e+003,4.132483e+001
1.687509e+003,4.286621e+001
1.688473e+003,4.368823e+001
1.689438e+003,4.365222e+001
1.690402e+003,4.328369e+001
1.691366e+003,4.259729e+001
1.692330e+003,4.224329e+001
1.693294e+003,4.225842e+001
1.694259e+003,4.247839e+001
1.695223e+003,4.355322e+001
1.696187e+003,4.532532e+001
1.697151e+003,4.590576e+001
1.698116e+003,4.394409e+001
1.699080e+003,4.158984e+001
1.700044e+003,4.166724e+001
1.701008e+003,4.302417e+001
1.701973e+003,4.284827e+001
1.702937e+003,4.200452e+001
1.703901e+003,4.330554e+001
1.704865e+003,4.620862e+001
1.705829e+003,4.803796e+001
1.706794e+003,4.882397e+001
1.707758e+003,4.933398e+001
1.708722e+003,4.917664e+001
1.709686e+003,4.894739e+001
1.710651e+003,4.967163e+001
1.711615e+003,5.048169e+001
1.712579e+003,5.034607e+001
1.713543e+003,5.008240e+001
1.714508e+003,5.019971e+001
1.715472e+003,5.081531e+001
1.716436e+003,5.170825e+001
1.717400e+003,5.165918e+001
1.718365e+003,5.048010e+001
1.719329e+003,5.007861e+001
1.720293e+003,5.128662e+001
1.721257e+003,5.203540e+001
1.722221e+003,5.094897e+001
1.723186e+003,4.943372e+001
1.724150e+003,4.901196e+001
1.725114e+003,4.979175e+001
1.726078e+003,5.158862e+001
1.727043e+003,5.385510e+001
1.728007e+003,5.515930e+001
1.728971e+003,5.570789e+001
1.729935e+003,5.585547e+001
1.730900e+003,5.573743e+001
1.731864e+003,5.527759e+001
1.732828e+003,5.383582e+001
1.733792e+003,5.242114e+001
1.734756e+003,5.301404e+001
1.735721e+003,5.550293e+001
1.736685e+003,5.744397e+001
1.737649e+003,5.722937e+001
1.738613e+003,5.600720e+001
1.739578e+003,5.582922e+001
1.740542e+003,5.682678e+001
1.741506e+003,5.750793e+001
1.742470e+003,5.750598e+001
1.743435e+003,5.612573e+001
1.744399e+003,5.276404e+001
1.745363e+003,5.048840e+001
1.746327e+003,4.934644e+001
1.747292e+003,4.906787e+001
1.748256e+003,4.985950e+001
1.749220e+003,5.113440e+001
1.750184e+003,5.259106e+001
1.751148e+003,5.377429e+001
1.752113e+003,5.371423e+001
1.753077e+003,5.214587e+001
1.754041e+003,5.045557e+001
1.755005e+003,5.028174e+001
1.755970e+003,5.141528e+001
1.756934e+003,5.235559e+001
1.757898e+003,5.262170e+001
1.758862e+003,5.237732e+001
1.759827e+003,5.154297e+001
1.760791e+003,5.120398e+001
1.761755e+003,5.192749e+001
1.762719e+003,5.231226e+001
1.763683e+003,5.136487e+001
1.764648e+003,4.989880e+001
1.765612e+003,4.928687e+001
1.766576e+003,5.028979e+001
1.767540e+003,5.212598e+001
1.768505e+003,5.311572e+001
1.769469e+003,5.297034e+001
1.770433e+003,5.232117e+001
1.771397e+003,5.076904e+001
1.772362e+003,4.813232e+001
1.773326e+003,4.632739e+001
1.774290e+003,4.697241e+001
1.775254e+003,4.888416e+001
1.776219e+003,5.014026e+001
1.777183e+003,5.039392e+001
1.778147e+003,5.001489e+001
1.779111e+003,4.941443e+001
1.780075e+003,4.893994e+001
1.781040e+003,4.864087e+001
1.782004e+003,4.838538e+001
1.782968e+003,4.848682e+001
1.783932e+003,4.921399e+001
1.784897e+003,4.946948e+001
1.785861e+003,4.853687e+001
1.786825e+003,4.756091e+001
1.787789e+003,4.731311e+001
1.788754e+003,4.746094e+001
1.789718e+003,4.779810e+001
1.790682e+003,4.781116e+001
1.791646e+003,4.657739e+001
1.792610e+003,4.442468e+001
1.793575e+003,4.329053e+001
1.794539e+003,4.432825e+001
1.795503e+003,4.609863e+001
1.796467e+003,4.633044e+001
1.797432e+003,4.539551e+001
1.798396e+003,4.573987e+001
1.799360e+003,4.736853e+001
1.800324e+003,4.771729e+001
1.801289e+003,4.668713e+001
1.802253e+003,4.484937e+001
1.803217e+003,4.218079e+001
1.804181e+003,4.078284e+001
1.805146e+003,4.159473e+001
1.806110e+003,4.301660e+001
1.807074e+003,4.355005e+001
1.808038e+003,4.327002e+001
1.809002e+003,4.283276e+001
1.809967e+003,4.247681e+001
1.810931e+003,4.241870e+001
1.811895e+003,4.296826e+001
1.812859e+003,4.377429e+001
1.813824e+003,4.430420e+001
1.814788e+003,4.472351e+001
1.815752e+003,4.545654e+001
1.816716e+003,4.614038e+001
1.817681e+003,4.584729e+001
1.818645e+003,4.461487e+001
1.819609e+003,4.373877e+001
1.820573e+003,4.397180e+001
1.821537e+003,4.515649e+001
1.822502e+003,4.706091e+001
1.823466e+003,4.908362e+001
1.824430e+003,4.955713e+001
1.825394e+003,4.807959e+001
1.826359e+003,4.562939e+001
1.827323e+003,4.292615e+001
1.828287e+003,4.202576e+001
1.829251e+003,4.241541e+001
1.830216e+003,4.298218e+001
1.831180e+003,4.371643e+001
1.832144e+003,4.377722e+001
1.833108e+003,4.273389e+001
1.834073e+003,4.151392e+001
1.835037e+003,4.069336e+001
1.836001e+003,3.996448e+001
1.836965e+003,3.973865e+001
1.837929e+003,4.102844e+001
1.838894e+003,4.310986e+001
1.839858e+003,4.409717e+001
1.840822e+003,4.372717e+001
1.841786e+003,4.175757e+001
1.842751e+003,3.844385e+001
1.843715e+003,3.714929e+001
1.844679e+003,3.931067e+001
1.845643e+003,4.200964e+001
1.846608e+003,4.207422e+001
1.847572e+003,4.048804e+001
1.848536e+003,4.051123e+001
1.849500e+003,4.218274e+001
1.850464e+003,4.328503e+001
1.851429e+003,4.348755e+001
1.852393e+003,4.390747e+001
1.853357e+003,4.393372e+001
1.854321e+003,4.318726e+001
1.855286e+003,4.212585e+001
1.856250e+003,4.158972e+001
1.857214e+003,4.241333e+001
1.858178e+003,4.388574e+001
1.859143e+003,4.436707e+001
1.860107e+003,4.387500e+001
1.861071e+003,4.408875e+001
1.862035e+003,4.540674e+001
1.863000e+003,4.601440e+001
1.863964e+003,4.451477e+001
1.864928e+003,4.191724e+001
1.865892e+003,4.023987e+001
1.866856e+003,4.003406e+001
1.867821e+003,4.183044e+001
1.868785e+003,4.564050e+001
1.869749e+003,4.749780e+001
1.870713e+003,4.719958e+001
1.871678e+003,4.656079e+001
1.872642e+003,4.542944e+001
1.873606e+003,4.478992e+001
1.874570e+003,4.463245e+001
1.875535e+003,4.437573e+001
1.876499e+003,4.482458e+001
1.877463e+003,4.643494e+001
1.878427e+003,4.736304e+001
1.879391e+003,4.643799e+001
1.880356e+003,4.509106e+001
1.881320e+003,4.343799e+001
1.882284e+003,4.189941e+001
1.883248e+003,4.240320e+001
1.884213e+003,4.419226e+001
1.885177e+003,4.401501e+001
1.886141e+003,4.190833e+001
1.887105e+003,4.131177e+001
1.888070e+003,4.318384e+001
1.889034e+003,4.502917e+001
1.889998e+003,4.548669e+001
1.890962e+003,4.555347e+001
1.891927e+003,4.569019e+001
1.892891e+003,4.499951e+001
1.893855e+003,4.339661e+001
1.894819e+003,4.083655e+001
1.895783e+003,3.894849e+001
1.896748e+003,3.915576e+001
1.897712e+003,4.004907e+001
1.898676e+003,4.052783e+001
1.899640e+003,4.130847e+001
1.900605e+003,4.276685e+001
1.901569e+003,4.428516e+001
1.902533e+003,4.560095e+001
1.903497e+003,4.639209e+001
1.904462e+003,4.632117e+001
1.905426e+003,4.565076e+001
1.906390e+003,4.476721e+001
1.907354e+003,4.394128e+001
1.908318e+003,4.398279e+001
1.909283e+003,4.498193e+001
1.910247e+003,4.530481e+001
1.911211e+003,4.322852e+001
1.912175e+003,4.022314e+001
1.913140e+003,3.983081e+001
1.914104e+003,4.226550e+001
1.915068e+003,4.411072e+001
1.916032e+003,4.376343e+001
1.916997e+003,4.290625e+001
1.917961e+003,4.309521e+001
1.918925e+003,4.397656e+001
1.919889e+003,4.459485e+001
1.920854e+003,4.454529e+001
1.921818e+003,4.380859e+001
1.922782e+003,4.242883e+001
1.923746e+003,4.105627e+001
1.924710e+003,4.006335e+001
1.925675e+003,3.960535e+001
1.926639e+003,3.962842e+001
1.927603e+003,3.944641e+001
1.928567e+003,3.842432e+001
1.929532e+003,3.731482e+001
1.930496e+003,3.733508e+001
1.931460e+003,3.841614e+001
1.932424e+003,3.935242e+001
1.933389e+003,3.954541e+001
1.934353e+003,3.946606e+001
1.935317e+003,3.930139e+001
1.936281e+003,3.930896e+001
1.937245e+003,4.018066e+001
1.938210e+003,4.103125e+001
1.939174e+003,4.041309e+001
1.940138e+003,3.908093e+001
1.941102e+003,3.884424e+001
1.942067e+003,3.999121e+001
1.943031e+003,4.142065e+001
1.943995e+003,4.219727e+001
1.944959e+003,4.221558e+001
1.945924e+003,4.204541e+001
1.946888e+003,4.200891e+001
1.947852e+003,4.146545e+001
1.948816e+003,4.027710e+001
1.949781e+003,3.981958e+001
1.950745e+003,3.972693e+001
1.951709e+003,3.801404e+001
1.952673e+003,3.491968e+001
1.953637e+003,3.402979e+001
1.954602e+003,3.680518e+001
1.955566e+003,3.950671e+001
1.956530e+003,3.949707e+001
1.957494e+003,3.850439e+001
1.958459e+003,3.850623e+001
1.959423e+003,3.867944e+001
1.960387e+003,3.832483e+001
1.961351e+003,3.775317e+001
1.962316e+003,3.746252e+001
1.963280e+003,3.787390e+001
1.964244e+003,3.823035e+001
1.965208e+003,3.851611e+001
1.966172e+003,3.886340e+001
1.967137e+003,3.885596e+001
1.968101e+003,3.850269e+001
1.969065e+003,3.799854e+001
1.970029e+003,3.698145e+001
1.970994e+003,3.555762e+001
1.971958e+003,3.481775e+001
1.972922e+003,3.504822e+001
1.973886e+003,3.480469e+001
1.974851e+003,3.395496e+001
1.975815e+003,3.423425e+001
1.976779e+003,3.526782e+001
1.977743e+003,3.522949e+001
1.978708e+003,3.479089e+001
1.979672e+003,3.599512e+001
1.980636e+003,3.801892e+001
1.981600e+003,3.750659e+001
1.982564e+003,3.413196e+001
1.983529e+003,3.117175e+001
1.984493e+003,3.061279e+001
1.985457e+003,3.175562e+001
1.986421e+003,3.342603e+001
1.987386e+003,3.519080e+001
1.988350e+003,3.590063e+001
1.989314e+003,3.446289e+001
1.990278e+003,3.372327e+001
1.991243e+003,3.504895e+001
1.992207e+003,3.530603e+001
1.993171e+003,3.436133e+001
1.994135e+003,3.350684e+001
1.995099e+003,3.278625e+001
1.996064e+003,3.242163e+001
1.997028e+003,3.187341e+001
1.997992e+003,3.151892e+001
1.998956e+003,3.297961e+001
1.999921e+003,3.600171e+001
2.000885e+003,3.704199e+001
2.001849e+003,3.404041e+001
2.002813e+003,3.154248e+001
2.003778e+003,3.268982e+001
2.004742e+003,3.420264e+001
2.005706e+003,3.382300e+001
2.006670e+003,3.323767e+001
2.007635e+003,3.436096e+001
2.008599e+003,3.620007e+001
2.009563e+003,3.687878e+001
2.010527e+003,3.633850e+001
2.011491e+003,3.553870e+001
2.012456e+003,3.477698e+001
2.013420e+003,3.409851e+001
2.014384e+003,3.389978e+001
2.015348e+003,3.400549e+001
2.016313e+003,3.375623e+001
2.017277e+003,3.333081e+001
2.018241e+003,3.333606e+001
2.019205e+003,3.378125e+001
2.020170e+003,3.416345e+001
2.021134e+003,3.427539e+001
2.022098e+003,3.512292e+001
2.023062e+003,3.734314e+001
2.024026e+003,3.945911e+001
2.024991e+003,4.003931e+001
2.025955e+003,3.962402e+001
2.026919e+003,3.943250e+001
2.027883e+003,3.928442e+001
2.028848e+003,3.809595e+001
2.029812e+003,3.625989e+001
2.030776e+003,3.594507e+001
2.031740e+003,3.606812e+001
2.032705e+003,3.505078e+001
2.033669e+003,3.353772e+001
2.034633e+003,3.273633e+001
2.035597e+003,3.357776e+001
2.036562e+003,3.544141e+001
2.037526e+003,3.714758e+001
2.038490e+003,3.808960e+001
2.039454e+003,3.781677e+001
2.040418e+003,3.604895e+001
2.041383e+003,3.449927e+001
2.042347e+003,3.399854e+001
2.043311e+003,3.367004e+001
2.044275e+003,3.308154e+001
2.045240e+003,3.349219e+001
2.046204e+003,3.569031e+001
2.047168e+003,3.741016e+001
2.048132e+003,3.768848e+001
2.049097e+003,3.741028e+001
2.050061e+003,3.663599e+001
2.051025e+003,3.524731e+001
2.051989e+003,3.399915e+001
2.052954e+003,3.378674e+001
2.053918e+003,3.484644e+001
2.054882e+003,3.723547e+001
2.055846e+003,3.861450e+001
2.056811e+003,3.649927e+001
2.057775e+003,3.363721e+001
2.058739e+003,3.306250e+001
2.059703e+003,3.378137e+001
2.060667e+003,3.358215e+001
2.061632e+003,3.275513e+001
2.062596e+003,3.313354e+001
2.063560e+003,3.460168e+001
2.064524e+003,3.530347e+001
2.065489e+003,3.495898e+001
2.066453e+003,3.524597e+001
2.067417e+003,3.652954e+001
2.068381e+003,3.707507e+001
2.069345e+003,3.541418e+001
2.070310e+003,3.260303e+001
2.071274e+003,3.167883e+001
2.072238e+003,3.311719e+001
2.073202e+003,3.374573e+001
2.074167e+003,3.239868e+001
2.075131e+003,3.119141e+001
2.076095e+003,3.101270e+001
2.077059e+003,3.132458e+001
2.078023e+003,3.214148e+001
2.078988e+003,3.316980e+001
2.079952e+003,3.299121e+001
2.080916e+003,3.140942e+001
2.081880e+003,3.124548e+001
2.082845e+003,3.342297e+001
2.083809e+003,3.387683e+001
2.084773e+003,3.197070e+001
2.085737e+003,3.080249e+001
2.086702e+003,3.088599e+001
2.087666e+003,3.114453e+001
2.088630e+003,3.150354e+001
2.089594e+003,3.174841e+001
2.090559e+003,3.113599e+001
2.091523e+003,2.973303e+001
2.092487e+003,2.834668e+001
2.093451e+003,2.733044e+001
2.094416e+003,2.687781e+001
2.095380e+003,2.684106e+001
2.096344e+003,2.658289e+001
2.097308e+003,2.682886e+001
2.098272e+003,2.679150e+001
2.099237e+003,2.504761e+001
2.100201e+003,2.399609e+001
2.101165e+003,2.528381e+001
2.102129e+003,2.694690e+001
2.103094e+003,2.768127e+001
2.104058e+003,2.776282e+001
2.105022e+003,2.751550e+001
2.105986e+003,2.733472e+001
2.106951e+003,2.751453e+001
2.107915e+003,2.724292e+001
2.108879e+003,2.684790e+001
2.109843e+003,2.716284e+001
2.110808e+003,2.677393e+001
2.111772e+003,2.495093e+001
2.112736e+003,2.406946e+001
2.113700e+003,2.533936e+001
2.114665e+003,2.626477e+001
2.115629e+003,2.476233e+001
2.116593e+003,2.221729e+001
2.117557e+003,2.117017e+001
2.118521e+003,2.217969e+001
2.119486e+003,2.362646e+001
2.120450e+003,2.472229e+001
2.121414e+003,2.536047e+001
2.122378e+003,2.393445e+001
2.123343e+003,2.220422e+001
2.124307e+003,2.307776e+001
2.125271e+003,2.461072e+001
2.126235e+003,2.468628e+001
2.127199e+003,2.423206e+001
2.128164e+003,2.363049e+001
2.129128e+003,2.292224e+001
2.130092e+003,2.337134e+001
2.131056e+003,2.519434e+001
2.132021e+003,2.609302e+001
2.132985e+003,2.440991e+001
2.133949e+003,2.212634e+001
2.134913e+003,2.049756e+001
2.135877e+003,1.894702e+001
2.136842e+003,1.852344e+001
2.137806e+003,1.970215e+001
2.138770e+003,2.110278e+001
2.139734e+003,2.196399e+001
2.140699e+003,2.210205e+001
2.141663e+003,2.119299e+001
2.142627e+003,1.985889e+001
2.143591e+003,1.916675e+001
2.144556e+003,1.895813e+001
2.145520e+003,1.852002e+001
2.146484e+003,1.824451e+001
2.147448e+003,1.812732e+001
2.148413e+003,1.790125e+001
2.149377e+003,1.896289e+001
2.150341e+003,2.022205e+001
2.151305e+003,1.908032e+001
2.152270e+003,1.713037e+001
2.153234e+003,1.697021e+001
2.154198e+003,1.775916e+001
2.155162e+003,1.789063e+001
2.156126e+003,1.733386e+001
2.157091e+003,1.632458e+001
2.158055e+003,1.514404e+001
2.159019e+003,1.507031e+001
2.159983e+003,1.668567e+001
2.160948e+003,1.806055e+001
2.161912e+003,1.736609e+001
2.162876e+003,1.590869e+001
2.163840e+003,1.578577e+001
2.164805e+003,1.645374e+001
2.165769e+003,1.645288e+001
2.166733e+003,1.584399e+001
2.167697e+003,1.546057e+001
2.168662e+003,1.571497e+001
2.169626e+003,1.607104e+001
2.170590e+003,1.551807e+001
2.171554e+003,1.433032e+001
2.172519e+003,1.391077e+001
2.173483e+003,1.424817e+001
2.174447e+003,1.502661e+001
2.175411e+003,1.587537e+001
2.176375e+003,1.550232e+001
2.177340e+003,1.445361e+001
2.178304e+003,1.318140e+001
2.179268e+003,1.144128e+001
2.180232e+003,1.095923e+001
2.181197e+003,1.218018e+001
2.182161e+003,1.307361e+001
2.183125e+003,1.288049e+001
2.184089e+003,1.257239e+001
2.185053e+003,1.251843e+001
2.186018e+003,1.222937e+001
2.186982e+003,1.087610e+001
2.187946e+003,9.164063e+000
2.188910e+003,9.477295e+000
2.189875e+003,1.098633e+001
2.190839e+003,1.109033e+001
2.191803e+003,1.016907e+001
2.192767e+003,8.963501e+000
2.193731e+003,7.246704e+000
2.194696e+003,5.850708e+000
2.195660e+003,5.545654e+000
2.196624e+003,5.991211e+000
2.197588e+003,6.891357e+000
2.198553e+003,7.570557e+000
2.199517e+003,6.386719e+000
2.200481e+003,4.474731e+000
2.201445e+003,5.035034e+000
2.202410e+003,7.526611e+000
2.203374e+003,9.740845e+000
2.204338e+003,1.121912e+001
2.205302e+003,1.176135e+001
2.206267e+003,1.107886e+001
2.207231e+003,9.717407e+000
2.208195e+003,8.238281e+000
2.209159e+003,6.383179e+000
2.210124e+003,4.327515e+000
2.211088e+003,3.661621e+000
2.212052e+003,5.539429e+000
2.213016e+003,7.966431e+000
2.213980e+003,8.523804e+000
2.214945e+003,7.732300e+000
2.215909e+003,6.716797e+000
2.216873e+003,6.265259e+000
2.217837e+003,6.675171e+000
2.218802e+003,7.453857e+000
2.219766e+003,8.386475e+000
2.220730e+003,9.092163e+000
2.221694e+003,8.849731e+000
2.222659e+003,7.850952e+000
2.223623e+003,6.666382e+000
2.224587e+003,5.447144e+000
2.225551e+003,4.890137e+000
2.226516e+003,4.429810e+000
2.227480e+003,3.325317e+000
2.228444e+003,3.520264e+000
2.229408e+003,5.049316e+000
2.230373e+003,5.633667e+000
2.231337e+003,5.414307e+000
2.232301e+003,5.911621e+000
2.233265e+003,6.994141e+000
2.234229e+003,7.352417e+000
2.235194e+003,6.647095e+000
2.236158e+003,5.923096e+000
2.237122e+003,5.545166e+000
2.238086e+003,4.930054e+000
2.239051e+003,4.248169e+000
2.240015e+003,4.017212e+000
2.240979e+003,4.754761e+000
2.241943e+003,5.845459e+000
2.242907e+003,5.572144e+000
2.243872e+003,4.533447e+000
2.244836e+003,4.968994e+000
2.245800e+003,6.474854e+000
2.246764e+003,6.417969e+000
2.247729e+003,4.217529e+000
2.248693e+003,2.585449e+000
2.249657e+003,3.676880e+000
2.250621e+003,4.834595e+000
2.251585e+003,2.448730e+000
2.252550e+003,1.140137e-001
2.253514e+003,2.048950e+000
2.254478e+003,4.704346e+000
2.255442e+003,3.621948e+000
2.256407e+003,1.359009e+000
2.257371e+003,2.602783e+000
2.258335e+003,6.175903e+000
2.259299e+003,7.363770e+000
2.260264e+003,5.152710e+000
2.261228e+003,2.841431e+000
2.262192e+003,2.676025e+000
2.263156e+003,3.387085e+000
2.264121e+003,3.710815e+000
2.265085e+003,3.330933e+000
2.266049e+003,1.581421e+000
2.267013e+003,0.000000e+000
2.267978e+003,3.509521e-001
2.268942e+003,1.670410e+000
2.269906e+003,2.463745e+000
2.270870e+003,2.752563e+000
2.271834e+003,3.027954e+000
2.272799e+003,2.961670e+000
2.273763e+003,2.282715e+000
2.274727e+003,1.829102e+000
2.275691e+003,2.418701e+000
2.276656e+003,4.262573e+000
2.277620e+003,5.835449e+000
2.278584e+003,6.465454e+000
2.279548e+003,6.274902e+000
2.280513e+003,4.972290e+000
2.281477e+003,3.778076e+000
2.282441e+003,3.378784e+000
2.283405e+003,3.411865e+000
2.284370e+003,4.189331e+000
2.285334e+003,5.730713e+000
2.286298e+003,6.829834e+000
2.287262e+003,6.675903e+000
2.288227e+003,5.801880e+000
2.289191e+003,4.471680e+000
2.290155e+003,3.491211e+000
2.291119e+003,2.676636e+000
2.292083e+003,2.937500e+000
2.293048e+003,4.650757e+000
2.294012e+003,6.273071e+000
2.294976e+003,8.089844e+000
2.295940e+003,9.445068e+000
2.296905e+003,8.838013e+000
2.297869e+003,7.066650e+000
2.298833e+003,6.207153e+000
2.299797e+003,6.285645e+000
2.300761e+003,5.960327e+000
2.301726e+003,5.291870e+000
2.302690e+003,5.598389e+000
2.303654e+003,6.538330e+000
2.304618e+003,7.864990e+000
2.305583e+003,1.015649e+001
2.306547e+003,1.086060e+001
2.307511e+003,8.872192e+000
2.308475e+003,7.750244e+000
2.309439e+003,9.561401e+000
2.310404e+003,1.211084e+001
2.311368e+003,1.298694e+001
2.312332e+003,1.275085e+001
2.313296e+003,1.334302e+001
2.314261e+003,1.497351e+001
2.315225e+003,1.597339e+001
2.316189e+003,1.617090e+001
2.317153e+003,1.658557e+001
2.318118e+003,1.692834e+001
2.319082e+003,1.651184e+001
2.320046e+003,1.571045e+001
2.321010e+003,1.548157e+001
2.321975e+003,1.632300e+001
2.322939e+003,1.791394e+001
2.323903e+003,1.943811e+001
2.324867e+003,2.134985e+001
2.325832e+003,2.498584e+001
2.326796e+003,2.890295e+001
2.327760e+003,3.145996e+001
2.328724e+003,3.348206e+001
2.329688e+003,3.415613e+001
2.330653e+003,3.369202e+001
2.331617e+003,3.456335e+001
2.332581e+003,3.605579e+001
2.333545e+003,3.531226e+001
2.334510e+003,3.286182e+001
2.335474e+003,3.120337e+001
2.336438e+003,3.080957e+001
2.337402e+003,3.099255e+001
2.338367e+003,3.180151e+001
2.339331e+003,3.329749e+001
2.340295e+003,3.564063e+001
2.341259e+003,3.776831e+001
2.342224e+003,3.945471e+001
2.343188e+003,4.092395e+001
2.344152e+003,4.157483e+001
2.345116e+003,4.252063e+001
2.346081e+003,4.532898e+001
2.347045e+003,4.839514e+001
2.348009e+003,4.899536e+001
2.348973e+003,4.765344e+001
2.349938e+003,4.751660e+001
2.350902e+003,4.905481e+001
2.351866e+003,4.989771e+001
2.352830e+003,4.940918e+001
2.353794e+003,5.131055e+001
2.354759e+003,5.713647e+001
2.355723e+003,6.144971e+001
2.356687e+003,6.166052e+001
2.357651e+003,6.221741e+001
2.358615e+003,6.581787e+001
2.359580e+003,6.972876e+001
2.360544e+003,7.172974e+001
2.361508e+003,7.225659e+001
2.362472e+003,7.196033e+001
2.363437e+003,7.189392e+001
2.364401e+003,7.422534e+001
2.365365e+003,7.827234e+001
2.366329e+003,8.220386e+001
2.367293e+003,8.593311e+001
2.368258e+003,8.892810e+001
2.369222e+003,9.165527e+001
2.370186e+003,9.409204e+001
2.371150e+003,9.617004e+001
2.372115e+003,9.842273e+001
2.373079e+003,1.006583e+002
2.374043e+003,1.020745e+002
2.375007e+003,1.026606e+002
2.375972e+003,1.035500e+002
2.376936e+003,1.054501e+002
2.377900e+003,1.082604e+002
2.378864e+003,1.128008e+002
2.379829e+003,1.170414e+002
2.380793e+003,1.170349e+002
2.381757e+003,1.148004e+002
2.382721e+003,1.143805e+002
2.383686e+003,1.159746e+002
2.384650e+003,1.183752e+002
2.385614e+003,1.208767e+002
2.386578e+003,1.224700e+002
2.387542e+003,1.225951e+002
2.388507e+003,1.226954e+002
2.389471e+003,1.238130e+002
2.390435e+003,1.251910e+002
2.391399e+003,1.265345e+002
2.392364e+003,1.283373e+002
2.393328e+003,1.310699e+002
2.394292e+003,1.331519e+002
2.395256e+003,1.331855e+002
2.396221e+003,1.323442e+002
2.397185e+003,1.323412e+002
2.398149e+003,1.331448e+002
2.399113e+003,1.334457e+002
2.400078e+003,1.330732e+002
2.401042e+003,1.335437e+002
2.402006e+003,1.353146e+002
2.402970e+003,1.362439e+002
2.403935e+003,1.358188e+002
2.404899e+003,1.353600e+002
2.405863e+003,1.349830e+002
2.406827e+003,1.357111e+002
2.407792e+003,1.383553e+002
2.408756e+003,1.415121e+002
2.409720e+003,1.436627e+002
2.410684e+003,1.436818e+002
2.411648e+003,1.413531e+002
2.412613e+003,1.389214e+002
2.413577e+003,1.395826e+002
2.414541e+003,1.427936e+002
2.415505e+003,1.455978e+002
2.416469e+003,1.470262e+002
2.417434e+003,1.472915e+002
2.418398e+003,1.473131e+002
2.419362e+003,1.477505e+002
2.420326e+003,1.486803e+002
2.421291e+003,1.498920e+002
2.422255e+003,1.505547e+002
2.423219e+003,1.507004e+002
2.424183e+003,1.514409e+002
2.425147e+003,1.522196e+002
2.426112e+003,1.517870e+002
2.427076e+003,1.518602e+002
2.428040e+003,1.529044e+002
2.429004e+003,1.536626e+002
2.429969e+003,1.549502e+002
2.430933e+003,1.555433e+002
2.431897e+003,1.534730e+002
2.432861e+003,1.512479e+002
2.433826e+003,1.515758e+002
2.434790e+003,1.529144e+002
2.435754e+003,1.528833e+002
2.436718e+003,1.518992e+002
2.437683e+003,1.510718e+002
2.438647e+003,1.503650e+002
2.439611e+003,1.496807e+002
2.440575e+003,1.491449e+002
2.441540e+003,1.482473e+002
2.442504e+003,1.467461e+002
2.443468e+003,1.448384e+002
2.444432e+003,1.427170e+002
2.445396e+003,1.421851e+002
2.446361e+003,1.434773e+002
2.447325e+003,1.436188e+002
2.448289e+003,1.410928e+002
2.449253e+003,1.378008e+002
2.450218e+003,1.357722e+002
2.451182e+003,1.350499e+002
2.452146e+003,1.342544e+002
2.453110e+003,1.325123e+002
2.454075e+003,1.308719e+002
2.455039e+003,1.290824e+002
2.456003e+003,1.257930e+002
2.456967e+003,1.228514e+002
2.457932e+003,1.223864e+002
2.458896e+003,1.231310e+002
2.459860e+003,1.229503e+002
2.460824e+003,1.215027e+002
2.461789e+003,1.195658e+002
2.462753e+003,1.177616e+002
2.463717e+003,1.171907e+002
2.464681e+003,1.194683e+002
2.465646e+003,1.200774e+002
2.466610e+003,1.162069e+002
2.467574e+003,1.126167e+002
2.468538e+003,1.114016e+002
2.469502e+003,1.109884e+002
2.470467e+003,1.101526e+002
2.471431e+003,1.093585e+002
2.472395e+003,1.091558e+002
2.473359e+003,1.087079e+002
2.474323e+003,1.073934e+002
2.475288e+003,1.061965e+002
2.476252e+003,1.056921e+002
2.477216e+003,1.052076e+002
2.478180e+003,1.035737e+002
2.479145e+003,1.008235e+002
2.480109e+003,9.826257e+001
2.481073e+003,9.665503e+001
2.482037e+003,9.667908e+001
2.483001e+003,9.798022e+001
2.483966e+003,9.897742e+001
2.484930e+003,9.867981e+001
2.485894e+003,9.739807e+001
2.486858e+003,9.562244e+001
2.487823e+003,9.357654e+001
2.488787e+003,9.129211e+001
2.489751e+003,9.020398e+001
2.490715e+003,9.091589e+001
2.491680e+003,9.125342e+001
2.492644e+003,9.005640e+001
2.493608e+003,8.973169e+001
2.494572e+003,9.182385e+001
2.495537e+003,9.409705e+001
2.496501e+003,9.472461e+001
2.497465e+003,9.387927e+001
2.498429e+003,9.267493e+001
2.499394e+003,9.152710e+001
2.500358e+003,8.950452e+001
2.501322e+003,8.690405e+001
2.502286e+003,8.772449e+001
2.503250e+003,9.128931e+001
2.504215e+003,9.219446e+001
2.505179e+003,9.023230e+001
2.506143e+003,8.945386e+001
2.507107e+003,9.041785e+001
2.508072e+003,9.090723e+001
2.509036e+003,9.047412e+001
2.510000e+003,9.033997e+001
2.510964e+003,9.121082e+001
2.511929e+003,9.207324e+001
2.512893e+003,9.146997e+001
2.513857e+003,9.106909e+001
2.514821e+003,9.213074e+001
2.515786e+003,9.243359e+001
2.516750e+003,9.120862e+001
2.517714e+003,9.037561e+001
2.518678e+003,9.050183e+001
2.519643e+003,9.073181e+001
2.520607e+003,9.090808e+001
2.521571e+003,9.099670e+001
2.522535e+003,9.051099e+001
2.523500e+003,8.923657e+001
2.524464e+003,8.767834e+001
2.525428e+003,8.607202e+001
2.526392e+003,8.585181e+001
2.527356e+003,8.756531e+001
2.528321e+003,8.951355e+001
2.529285e+003,9.084167e+001
2.530249e+003,9.104492e+001
2.531213e+003,9.009619e+001
2.532177e+003,8.964514e+001
2.533142e+003,9.060510e+001
2.534106e+003,9.162439e+001
2.535070e+003,9.188367e+001
2.536034e+003,9.183484e+001
2.536999e+003,9.017603e+001
2.537963e+003,8.783447e+001
2.538927e+003,8.713940e+001
2.539891e+003,8.723828e+001
2.540855e+003,8.739771e+001
2.541820e+003,8.837646e+001
2.542784e+003,9.048987e+001
2.543748e+003,9.163025e+001
2.544712e+003,9.086035e+001
2.545677e+003,8.919849e+001
2.546641e+003,8.717114e+001
2.547605e+003,8.510291e+001
2.548569e+003,8.502319e+001
2.549534e+003,8.673340e+001
2.550498e+003,8.729028e+001
2.551462e+003,8.711133e+001
2.552426e+003,8.552661e+001
2.553391e+003,8.261169e+001
2.554355e+003,8.157214e+001
2.555319e+003,8.226086e+001
2.556283e+003,8.354309e+001
2.557248e+003,8.533752e+001
2.558212e+003,8.588245e+001
2.559176e+003,8.385522e+001
2.560140e+003,8.105762e+001
2.561104e+003,7.800842e+001
2.562069e+003,7.600928e+001
2.563033e+003,7.635559e+001
2.563997e+003,7.660034e+001
2.564961e+003,7.652063e+001
2.565926e+003,7.635437e+001
2.566890e+003,7.573657e+001
2.567854e+003,7.609143e+001
2.568818e+003,7.812573e+001
2.569783e+003,7.885291e+001
2.570747e+003,7.611804e+001
2.571711e+003,7.246643e+001
2.572675e+003,7.043237e+001
2.573640e+003,6.953784e+001
2.574604e+003,6.983105e+001
2.575568e+003,7.020813e+001
2.576532e+003,7.011658e+001
2.577497e+003,7.002136e+001
2.578461e+003,6.915186e+001
2.579425e+003,6.801965e+001
2.580389e+003,6.723584e+001
2.581354e+003,6.641479e+001
2.582318e+003,6.633020e+001
2.583282e+003,6.722583e+001
2.584246e+003,6.550208e+001
2.585210e+003,5.966406e+001
2.586175e+003,5.767676e+001
2.587139e+003,6.046802e+001
2.588103e+003,6.151135e+001
2.589067e+003,6.003870e+001
2.590031e+003,5.886658e+001
2.590996e+003,5.839160e+001
2.591960e+003,5.744153e+001
2.592924e+003,5.630176e+001
2.593888e+003,5.592273e+001
2.594853e+003,5.634717e+001
2.595817e+003,5.716467e+001
2.596781e+003,5.803430e+001
2.597745e+003,5.764587e+001
2.598709e+003,5.601001e+001
2.599674e+003,5.462000e+001
2.600638e+003,5.158264e+001
2.601602e+003,4.912183e+001
2.602566e+003,5.114624e+001
2.603531e+003,5.359058e+001
2.604495e+003,5.303027e+001
2.605459e+003,5.151306e+001
2.606423e+003,4.977124e+001
2.607388e+003,4.759045e+001
2.608352e+003,4.705530e+001
2.609316e+003,4.832849e+001
2.610280e+003,4.941833e+001
2.611245e+003,5.068652e+001
2.612209e+003,5.119495e+001
2.613173e+003,5.038721e+001
2.614137e+003,4.871582e+001
2.615102e+003,4.635522e+001
2.616066e+003,4.433105e+001
2.617030e+003,4.355896e+001
2.617994e+003,4.420337e+001
2.618958e+003,4.605627e+001
2.619923e+003,4.699316e+001
2.620887e+003,4.506970e+001
2.621851e+003,4.349536e+001
2.622815e+003,4.316418e+001
2.623780e+003,4.284534e+001
2.624744e+003,4.267432e+001
2.625708e+003,4.207947e+001
2.626672e+003,4.151721e+001
2.627637e+003,4.165869e+001
2.628601e+003,4.258582e+001
2.629565e+003,4.308069e+001
2.630529e+003,4.229260e+001
2.631494e+003,4.200427e+001
2.632458e+003,4.388745e+001
2.633422e+003,4.591003e+001
2.634386e+003,4.520276e+001
2.635351e+003,4.308203e+001
2.636315e+003,4.242688e+001
2.637279e+003,4.235303e+001
2.638243e+003,4.123755e+001
2.639208e+003,4.072314e+001
2.640172e+003,4.195435e+001
2.641136e+003,4.317017e+001
2.642100e+003,4.282898e+001
2.643064e+003,4.105701e+001
2.644029e+003,3.868445e+001
2.644993e+003,3.644385e+001
2.645957e+003,3.563989e+001
2.646921e+003,3.664697e+001
2.647885e+003,3.912122e+001
2.648850e+003,4.167554e+001
2.649814e+003,4.090649e+001
2.650778e+003,3.745886e+001
2.651742e+003,3.574402e+001
2.652707e+003,3.617017e+001
2.653671e+003,3.571960e+001
2.654635e+003,3.457483e+001
2.655599e+003,3.489478e+001
2.656563e+003,3.629492e+001
2.657528e+003,3.800220e+001
2.658492e+003,3.918420e+001
2.659456e+003,3.892517e+001
2.660420e+003,3.903821e+001
2.661385e+003,3.796704e+001
2.662349e+003,3.500549e+001
2.663313e+003,3.305371e+001
2.664277e+003,3.275073e+001
2.665242e+003,3.333093e+001
2.666206e+003,3.460010e+001
2.667170e+003,3.554517e+001
2.668134e+003,3.486523e+001
2.669099e+003,3.383789e+001
2.670063e+003,3.506494e+001
2.671027e+003,3.588940e+001
2.671991e+003,3.330481e+001
2.672956e+003,2.999866e+001
2.673920e+003,2.708203e+001
2.674884e+003,2.558313e+001
2.675848e+003,2.658411e+001
2.676813e+003,2.842456e+001
2.677777e+003,2.914758e+001
2.678741e+003,2.871570e+001
2.679705e+003,2.828113e+001
2.680669e+003,2.896350e+001
2.681634e+003,2.964258e+001
2.682598e+003,2.914258e+001
2.683562e+003,2.888538e+001
2.684526e+003,2.865601e+001
2.685491e+003,2.742493e+001
2.686455e+003,2.686877e+001
2.687419e+003,2.712292e+001
2.688383e+003,2.643030e+001
2.689348e+003,2.489624e+001
2.690312e+003,2.362781e+001
2.691276e+003,2.289185e+001
2.692240e+003,2.366125e+001
2.693205e+003,2.495654e+001
2.694169e+003,2.513586e+001
2.695133e+003,2.499219e+001
2.696097e+003,2.451636e+001
2.697062e+003,2.269312e+001
2.698026e+003,2.087915e+001
2.698990e+003,2.047742e+001
2.699954e+003,2.085461e+001
2.700918e+003,2.117200e+001
2.701883e+003,2.093250e+001
2.702847e+003,2.007178e+001
2.703811e+003,1.945264e+001
2.704775e+003,1.923169e+001
2.705740e+003,2.025708e+001
2.706704e+003,1.994971e+001
2.707668e+003,1.681653e+001
2.708632e+003,1.536682e+001
2.709596e+003,1.639380e+001
2.710561e+003,1.713196e+001
2.711525e+003,1.693225e+001
2.712489e+003,1.679724e+001
2.713453e+003,1.681763e+001
2.714417e+003,1.662317e+001
2.715382e+003,1.680127e+001
2.716346e+003,1.609082e+001
2.717310e+003,1.406189e+001
2.718274e+003,1.319507e+001
2.719239e+003,1.165576e+001
2.720203e+003,1.090967e+001
2.721167e+003,1.260669e+001
2.722131e+003,1.365759e+001
2.723096e+003,1.330188e+001
2.724060e+003,1.292627e+001
2.725024e+003,1.314551e+001
2.725988e+003,1.340857e+001
2.726953e+003,1.376184e+001
2.727917e+003,1.463391e+001
2.728881e+003,1.347290e+001
2.729845e+003,1.091272e+001
2.730810e+003,1.040710e+001
2.731774e+003,9.974365e+000
2.732738e+003,9.682373e+000
2.733702e+003,1.060425e+001
2.734667e+003,9.524170e+000
2.735631e+003,7.140625e+000
2.736595e+003,6.480591e+000
2.737559e+003,6.999023e+000
2.738523e+003,7.755859e+000
2.739488e+003,9.131348e+000
2.740452e+003,9.506592e+000
2.741416e+003,8.754517e+000
2.742380e+003,6.852905e+000
2.743345e+003,4.796265e+000
2.744309e+003,4.799561e+000
2.745273e+003,5.911743e+000
2.746237e+003,6.822021e+000
2.747202e+003,7.195557e+000
2.748166e+003,6.677979e+000
2.749130e+003,6.151611e+000
2.750094e+003,6.998169e+000
2.751059e+003,8.666992e+000
2.752023e+003,8.289673e+000
2.752987e+003,5.732422e+000
2.753951e+003,5.612671e+000
2.754916e+003,7.748535e+000
2.755880e+003,8.115723e+000
2.756844e+003,6.963501e+000
2.757808e+003,7.252808e+000
2.758772e+003,8.700806e+000
2.759737e+003,8.699097e+000
2.760701e+003,6.883789e+000
2.761665e+003,5.327271e+000
2.762629e+003,4.559692e+000
2.763594e+003,5.077759e+000
2.764558e+003,6.788940e+000
2.765522e+003,7.714233e+000
2.766486e+003,8.199097e+000
2.767450e+003,7.388428e+000
2.768415e+003,6.010620e+000
2.769379e+003,6.017456e+000
2.770343e+003,6.480103e+000
2.771307e+003,7.348633e+000
2.772271e+003,9.698364e+000
2.773236e+003,1.024805e+001
2.774200e+003,7.919189e+000
2.775164e+003,7.779663e+000
2.776128e+003,4.616455e+000
2.777093e+003,2.154663e+000
2.778057e+003,5.794800e+000
2.779021e+003,6.828491e+000
2.779985e+003,4.696777e+000
2.780950e+003,5.232544e+000
2.781914e+003,6.839355e+000
2.782878e+003,6.908813e+000
2.783842e+003,6.386719e+000
2.784807e+003,6.173828e+000
2.785771e+003,8.497925e+000
2.786735e+003,9.569214e+000
2.787699e+003,2.853394e+000
2.788664e+003,7.519531e-002
2.789628e+003,5.607178e+000
2.790592e+003,8.934814e+000
2.791556e+003,7.239746e+000
2.792521e+003,4.852417e+000
2.793485e+003,3.333252e+000
2.794449e+003,2.997437e+000
2.795413e+003,4.999146e+000
2.796377e+003,7.219849e+000
2.797342e+003,6.929932e+000
2.798306e+003,6.464722e+000
2.799270e+003,7.050415e+000
2.800234e+003,7.983154e+000
2.801199e+003,7.667236e+000
2.802163e+003,7.168823e+000
2.803127e+003,7.560059e+000
2.804091e+003,7.036499e+000
2.805056e+003,6.463501e+000
2.806020e+003,6.821533e+000
2.806984e+003,5.218506e+000
2.807948e+003,2.396729e+000
2.808913e+003,5.520386e+000
2.809877e+003,8.714844e+000
2.810841e+003,3.687988e+000
2.811805e+003,8.702393e-001
2.812770e+003,2.953735e+000
2.813734e+003,3.411499e+000
2.814698e+003,4.151855e+000
2.815662e+003,5.630127e+000
2.816626e+003,6.080933e+000
2.817591e+003,5.695190e+000
2.818555e+003,5.438843e+000
2.819519e+003,5.256348e+000
2.820483e+003,4.238770e+000
2.821448e+003,3.299194e+000
2.822412e+003,4.352661e+000
2.823376e+003,5.615356e+000
2.824340e+003,5.825562e+000
2.825304e+003,6.364136e+000
2.826269e+003,7.681396e+000
2.827233e+003,8.477783e+000
2.828197e+003,8.068237e+000
2.829161e+003,6.575684e+000
2.830125e+003,4.335205e+000
2.831090e+003,2.573242e+000
2.832054e+003,3.564209e+000
2.833018e+003,5.705811e+000
2.833982e+003,5.431641e+000
2.834947e+003,4.000732e+000
2.835911e+003,3.799438e+000
2.836875e+003,4.566284e+000
2.837839e+003,5.312866e+000
2.838804e+003,5.889893e+000
2.839768e+003,5.890625e+000
2.840732e+003,4.922485e+000
2.841696e+003,3.360107e+000
2.842661e+003,1.981934e+000
2.843625e+003,2.858521e+000
2.844589e+003,5.629150e+000
2.845553e+003,6.929199e+000
2.846518e+003,7.186401e+000
2.847482e+003,6.888916e+000
2.848446e+003,6.000977e+000
2.849410e+003,6.910034e+000
2.850375e+003,8.490356e+000
2.851339e+003,8.401367e+000
2.852303e+003,7.272583e+000
2.853267e+003,6.220093e+000
2.854231e+003,5.686279e+000
2.855196e+003,7.094116e+000
2.856160e+003,8.562744e+000
2.857124e+003,7.313477e+000
2.858088e+003,5.709595e+000
2.859053e+003,5.477661e+000
2.860017e+003,5.891968e+000
2.860981e+003,5.613525e+000
2.861945e+003,5.030273e+000
2.862910e+003,6.122803e+000
2.863874e+003,7.867676e+000
2.864838e+003,6.879395e+000
2.865802e+003,4.937500e+000
2.866767e+003,7.523682e+000
2.867731e+003,1.035181e+001
2.868695e+003,8.085571e+000
2.869659e+003,5.570190e+000
2.870624e+003,6.084351e+000
2.871588e+003,8.064575e+000
2.872552e+003,1.013916e+001
2.873516e+003,1.104456e+001
2.874480e+003,1.054736e+001
2.875445e+003,1.018665e+001
2.876409e+003,1.099438e+001
2.877373e+003,1.236658e+001
2.878337e+003,1.361804e+001
2.879302e+003,1.359839e+001
2.880266e+003,1.166248e+001
2.881230e+003,1.023462e+001
2.882194e+003,1.152905e+001
2.883158e+003,1.319104e+001
2.884123e+003,1.265637e+001
2.885087e+003,1.080554e+001
2.886051e+003,8.830200e+000
2.887015e+003,8.048584e+000
2.887979e+003,9.628906e+000
2.888944e+003,1.153394e+001
2.889908e+003,1.073584e+001
2.890872e+003,8.213379e+000
2.891836e+003,4.604736e+000
2.892801e+003,2.582031e+000
2.893765e+003,5.486328e+000
2.894729e+003,8.160767e+000
2.895693e+003,7.166382e+000
2.896658e+003,6.130615e+000
2.897622e+003,7.188110e+000
2.898586e+003,8.415649e+000
2.899550e+003,8.941284e+000
2.900515e+003,8.995361e+000
2.901479e+003,8.289185e+000
2.902443e+003,7.952393e+000
2.903407e+003,7.589478e+000
2.904372e+003,6.587280e+000
2.905336e+003,6.048340e+000
2.906300e+003,6.476563e+000
2.907264e+003,7.300415e+000
2.908229e+003,7.852417e+000
2.909193e+003,8.375977e+000
2.910157e+003,8.970337e+000
2.911121e+003,9.084473e+000
2.912085e+003,9.730225e+000
2.913050e+003,1.089868e+001
2.914014e+003,1.118604e+001
2.914978e+003,1.089465e+001
2.915942e+003,1.154944e+001
2.916907e+003,1.410864e+001
2.917871e+003,1.522253e+001
2.918835e+003,1.335571e+001
2.919799e+003,1.212634e+001
2.920764e+003,1.363367e+001
2.921728e+003,1.534070e+001
2.922692e+003,1.498840e+001
2.923656e+003,1.416785e+001
2.924621e+003,1.441797e+001
2.925585e+003,1.480005e+001
2.926549e+003,1.530310e+001
2.927513e+003,1.560156e+001
2.928478e+003,1.508093e+001
2.929442e+003,1.571338e+001
2.930406e+003,1.805908e+001
2.931370e+003,1.935364e+001
2.932334e+003,1.872839e+001
2.933299e+003,1.843445e+001
2.934263e+003,1.894812e+001
2.935227e+003,2.032324e+001
2.936191e+003,2.307922e+001
2.937156e+003,2.409875e+001
2.938120e+003,2.335034e+001
2.939084e+003,2.332080e+001
2.940048e+003,2.428552e+001
2.941012e+003,2.429907e+001
2.941977e+003,2.292590e+001
2.942941e+003,2.138770e+001
2.943905e+003,2.009167e+001
2.944869e+003,1.946887e+001
2.945833e+003,2.069250e+001
2.946798e+003,2.141150e+001
2.947762e+003,2.130005e+001
2.948726e+003,2.143359e+001
2.949690e+003,2.155920e+001
2.950655e+003,2.154089e+001
2.951619e+003,2.107434e+001
2.952583e+003,2.023657e+001
2.953547e+003,1.933911e+001
2.954512e+003,1.812231e+001
2.955476e+003,1.708728e+001
2.956440e+003,1.662549e+001
2.957404e+003,1.550806e+001
2.958369e+003,1.576392e+001
2.959333e+003,1.737781e+001
2.960297e+003,1.773743e+001
2.961261e+003,1.760962e+001
2.962226e+003,1.859534e+001
2.963190e+003,1.941821e+001
2.964154e+003,1.869653e+001
2.965118e+003,1.743958e+001
2.966083e+003,1.708801e+001
2.967047e+003,1.716821e+001
2.968011e+003,1.584668e+001
2.968975e+003,1.316724e+001
2.969939e+003,1.382678e+001
2.970904e+003,1.647461e+001
2.971868e+003,1.593677e+001
2.972832e+003,1.398645e+001
2.973796e+003,1.438464e+001
2.974761e+003,1.587524e+001
2.975725e+003,1.576721e+001
2.976689e+003,1.475049e+001
2.977653e+003,1.415442e+001
2.978618e+003,1.413098e+001
2.979582e+003,1.510425e+001
2.980546e+003,1.689673e+001
2.981510e+003,1.919922e+001
2.982475e+003,2.049963e+001
2.983439e+003,1.834241e+001
2.984403e+003,1.556958e+001
2.985367e+003,1.486206e+001
2.986332e+003,1.565479e+001
2.987296e+003,1.756750e+001
2.988260e+003,1.888489e+001
2.989224e+003,1.754431e+001
2.990188e+003,1.535596e+001
2.991153e+003,1.492920e+001
2.992117e+003,1.540820e+001
2.993081e+003,1.602539e+001
2.994045e+003,1.647229e+001
2.995010e+003,1.625171e+001
2.995974e+003,1.591846e+001
2.996938e+003,1.600220e+001
2.997902e+003,1.645239e+001
2.998866e+003,1.708276e+001
2.999831e+003,1.755652e+001
3.000795e+003,1.765955e+001
3.001759e+003,1.722290e+001
3.002723e+003,1.524231e+001
3.003688e+003,1.423792e+001
3.004652e+003,1.535083e+001
3.005616e+003,1.710693e+001
3.006580e+003,1.886389e+001
3.007544e+003,1.971265e+001
3.008509e+003,1.947229e+001
3.009473e+003,1.855591e+001
3.010437e+003,1.743835e+001
3.011401e+003,1.712439e+001
3.012366e+003,1.780908e+001
3.013330e+003,1.695703e+001
3.014294e+003,1.431775e+001
3.015258e+003,1.286206e+001
3.016223e+003,1.288586e+001
3.017187e+003,1.419604e+001
3.018151e+003,1.632837e+001
3.019115e+003,1.857141e+001
3.020080e+003,2.032092e+001
3.021044e+003,1.958630e+001
3.022008e+003,1.573743e+001
3.022972e+003,1.393091e+001
3.023937e+003,1.492834e+001
3.024901e+003,1.590979e+001
3.025865e+003,1.725745e+001
3.026829e+003,1.865527e+001
3.027793e+003,1.921094e+001
3.028758e+003,1.945227e+001
3.029722e+003,1.962207e+001
3.030686e+003,1.893079e+001
3.031650e+003,1.772583e+001
3.032615e+003,1.701721e+001
3.033579e+003,1.710413e+001
3.034543e+003,1.731250e+001
3.035507e+003,1.758398e+001
3.036472e+003,1.871204e+001
3.037436e+003,1.923193e+001
3.038400e+003,1.883545e+001
3.039364e+003,1.888196e+001
3.040329e+003,1.871936e+001
3.041293e+003,1.881140e+001
3.042257e+003,1.966125e+001
3.043221e+003,1.984912e+001
3.044186e+003,1.870679e+001
3.045150e+003,1.819214e+001
3.046114e+003,1.952185e+001
3.047078e+003,2.085974e+001
3.048042e+003,2.089722e+001
3.049007e+003,2.026782e+001
3.049971e+003,1.967334e+001
3.050935e+003,1.884241e+001
3.051899e+003,1.817175e+001
3.052864e+003,1.880261e+001
3.053828e+003,2.059021e+001
3.054792e+003,2.221899e+001
3.055756e+003,2.317480e+001
3.056720e+003,2.379297e+001
3.057685e+003,2.384192e+001
3.058649e+003,2.435449e+001
3.059613e+003,2.528882e+001
3.060577e+003,2.546655e+001
3.061542e+003,2.537329e+001
3.062506e+003,2.452649e+001
3.063470e+003,2.363074e+001
3.064434e+003,2.484595e+001
3.065398e+003,2.705469e+001
3.066363e+003,2.758997e+001
3.067327e+003,2.735303e+001
3.068291e+003,2.737305e+001
3.069255e+003,2.717224e+001
3.070220e+003,2.510901e+001
3.071184e+003,2.288049e+001
3.072148e+003,2.404810e+001
3.073112e+003,2.716846e+001
3.074077e+003,2.891272e+001
3.075041e+003,2.945923e+001
3.076005e+003,3.034167e+001
3.076969e+003,3.103564e+001
3.077934e+003,2.977490e+001
3.078898e+003,2.775964e+001
3.079862e+003,2.699023e+001
3.080826e+003,2.697705e+001
3.081791e+003,2.787732e+001
3.082755e+003,2.885583e+001
3.083719e+003,2.943774e+001
3.084683e+003,2.981494e+001
3.085647e+003,3.021667e+001
3.086612e+003,3.114038e+001
3.087576e+003,3.212256e+001
3.088540e+003,3.202515e+001
3.089504e+003,3.105310e+001
3.090469e+003,3.019556e+001
3.091433e+003,2.937842e+001
3.092397e+003,3.062268e+001
3.093361e+003,3.364185e+001
3.094326e+003,3.411523e+001
3.095290e+003,3.239319e+001
3.096254e+003,3.189209e+001
3.097218e+003,3.261609e+001
3.098183e+003,3.300769e+001
3.099147e+003,3.340234e+001
3.100111e+003,3.377942e+001
3.101075e+003,3.392322e+001
3.102040e+003,3.384058e+001
3.103004e+003,3.338989e+001
3.103968e+003,3.292004e+001
3.104932e+003,3.270923e+001
3.105896e+003,3.290222e+001
3.106861e+003,3.356348e+001
3.107825e+003,3.476270e+001
3.108789e+003,3.603589e+001
3.109753e+003,3.681445e+001
3.110718e+003,3.729773e+001
3.111682e+003,3.852466e+001
3.112646e+003,3.969678e+001
3.113610e+003,3.928931e+001
3.114574e+003,3.906348e+001
3.115539e+003,3.958252e+001
3.116503e+003,4.012219e+001
3.117467e+003,4.070789e+001
3.118431e+003,4.023303e+001
3.119396e+003,3.840320e+001
3.120360e+003,3.728052e+001
3.121324e+003,3.774609e+001
3.122288e+003,3.838037e+001
3.123252e+003,3.933472e+001
3.124217e+003,3.939673e+001
3.125181e+003,3.902539e+001
3.126145e+003,3.957776e+001
3.127109e+003,4.096924e+001
3.128074e+003,4.218726e+001
3.129038e+003,4.244177e+001
3.130002e+003,4.217273e+001
3.130966e+003,4.160815e+001
3.131931e+003,4.036328e+001
3.132895e+003,3.980322e+001
3.133859e+003,4.190979e+001
3.134823e+003,4.467493e+001
3.135788e+003,4.531055e+001
3.136752e+003,4.487329e+001
3.137716e+003,4.489783e+001
3.138680e+003,4.532007e+001
3.139645e+003,4.440686e+001
3.140609e+003,4.326172e+001
3.141573e+003,4.411316e+001
3.142537e+003,4.553101e+001
3.143501e+003,4.499304e+001
3.144466e+003,4.435498e+001
3.145430e+003,4.495605e+001
3.146394e+003,4.612708e+001
3.147358e+003,4.879053e+001
3.148323e+003,4.967444e+001
3.149287e+003,4.774719e+001
3.150251e+003,4.717188e+001
3.151215e+003,4.880225e+001
3.152180e+003,4.906726e+001
3.153144e+003,4.745605e+001
3.154108e+003,4.750342e+001
3.155072e+003,4.880408e+001
3.156037e+003,5.009949e+001
3.157001e+003,5.147815e+001
3.157965e+003,5.129382e+001
3.158929e+003,5.085535e+001
3.159894e+003,5.102771e+001
3.160858e+003,5.113269e+001
3.161822e+003,5.162732e+001
3.162786e+003,5.239233e+001
3.163750e+003,5.307129e+001
3.164715e+003,5.349329e+001
3.165679e+003,5.351465e+001
3.166643e+003,5.365112e+001
3.167607e+003,5.345032e+001
3.168572e+003,5.322778e+001
3.169536e+003,5.295703e+001
3.170500e+003,5.282019e+001
3.171464e+003,5.359241e+001
3.172428e+003,5.482495e+001
3.173393e+003,5.574817e+001
3.174357e+003,5.675378e+001
3.175321e+003,5.835168e+001
3.176285e+003,5.881079e+001
3.177250e+003,5.730859e+001
3.178214e+003,5.627734e+001
3.179178e+003,5.598718e+001
3.180142e+003,5.723254e+001
3.181106e+003,5.866565e+001
3.182071e+003,5.860205e+001
3.183035e+003,5.780762e+001
3.183999e+003,5.868921e+001
3.184963e+003,6.071802e+001
3.185928e+003,5.983765e+001
3.186892e+003,5.686682e+001
3.187856e+003,5.699341e+001
3.188820e+003,5.885400e+001
3.189785e+003,5.991919e+001
3.190749e+003,6.059253e+001
3.191713e+003,6.142590e+001
3.192677e+003,6.207642e+001
3.193642e+003,6.243713e+001
3.194606e+003,6.286279e+001
3.195570e+003,6.345093e+001
3.196534e+003,6.409863e+001
3.197499e+003,6.475061e+001
3.198463e+003,6.480298e+001
3.199427e+003,6.365979e+001
3.200391e+003,6.383337e+001
3.201355e+003,6.542529e+001
3.202320e+003,6.579272e+001
3.203284e+003,6.521790e+001
3.204248e+003,6.581396e+001
3.205212e+003,6.712183e+001
3.206177e+003,6.693506e+001
3.207141e+003,6.578247e+001
3.208105e+003,6.613135e+001
3.209069e+003,6.780115e+001
3.210034e+003,6.798096e+001
3.210998e+003,6.714172e+001
3.211962e+003,6.698560e+001
3.212926e+003,6.781567e+001
3.213891e+003,7.008350e+001
3.214855e+003,7.201135e+001
3.215819e+003,7.231860e+001
3.216783e+003,7.173096e+001
3.217748e+003,7.116858e+001
3.218712e+003,7.104736e+001
3.219676e+003,7.146106e+001
3.220640e+003,7.088013e+001
3.221604e+003,6.910730e+001
3.222569e+003,6.815186e+001
3.223533e+003,6.857141e+001
3.224497e+003,6.912683e+001
3.225461e+003,6.942737e+001
3.226426e+003,7.137573e+001
3.227390e+003,7.451794e+001
3.228354e+003,7.449951e+001
3.229318e+003,7.204297e+001
3.230282e+003,7.211743e+001
3.231247e+003,7.352075e+001
3.232211e+003,7.374573e+001
3.233175e+003,7.440381e+001
3.234139e+003,7.587207e+001
3.235104e+003,7.656299e+001
3.236068e+003,7.571912e+001
3.237032e+003,7.507336e+001
3.237996e+003,7.606665e+001
3.238960e+003,7.761035e+001
3.239925e+003,7.879419e+001
3.240889e+003,7.882129e+001
3.241853e+003,7.589282e+001
3.242817e+003,7.568848e+001
3.243782e+003,7.848376e+001
3.244746e+003,7.928809e+001
3.245710e+003,7.850842e+001
3.246674e+003,7.914294e+001
3.247639e+003,8.045313e+001
3.248603e+003,8.038501e+001
3.249567e+003,8.006006e+001
3.250531e+003,8.009143e+001
3.251496e+003,8.004126e+001
3.252460e+003,8.102722e+001
3.253424e+003,8.186670e+001
3.254388e+003,8.138440e+001
3.255353e+003,8.186023e+001
3.256317e+003,8.318396e+001
3.257281e+003,8.399548e+001
3.258245e+003,8.441052e+001
3.259209e+003,8.427441e+001
3.260174e+003,8.325317e+001
3.261138e+003,8.249670e+001
3.262102e+003,8.273071e+001
3.263066e+003,8.330811e+001
3.264031e+003,8.443457e+001
3.264995e+003,8.480066e+001
3.265959e+003,8.429675e+001
3.266923e+003,8.350024e+001
3.267888e+003,8.309631e+001
3.268852e+003,8.345032e+001
3.269816e+003,8.446240e+001
3.270780e+003,8.675769e+001
3.271745e+003,8.903943e+001
3.272709e+003,8.907739e+001
3.273673e+003,8.854126e+001
3.274637e+003,8.759058e+001
3.275602e+003,8.778308e+001
3.276566e+003,8.990649e+001
3.277530e+003,9.145203e+001
3.278494e+003,9.200732e+001
3.279458e+003,9.288635e+001
3.280423e+003,9.456396e+001
3.281387e+003,9.468823e+001
3.282351e+003,9.178992e+001
3.283315e+003,9.136963e+001
3.284280e+003,9.380334e+001
3.285244e+003,9.376550e+001
3.286208e+003,9.233972e+001
3.287172e+003,9.357471e+001
3.288136e+003,9.594104e+001
3.289101e+003,9.594312e+001
3.290065e+003,9.503064e+001
3.291029e+003,9.536768e+001
3.291993e+003,9.620569e+001
3.292958e+003,9.653870e+001
3.293922e+003,9.655786e+001
3.294886e+003,9.605737e+001
3.295850e+003,9.585693e+001
3.296814e+003,9.596460e+001
3.297779e+003,9.653870e+001
3.298743e+003,9.761755e+001
3.299707e+003,9.863989e+001
3.300671e+003,9.936365e+001
3.301636e+003,9.925745e+001
3.302600e+003,9.818359e+001
3.303564e+003,9.848718e+001
3.304528e+003,1.003232e+002
3.305493e+003,1.014180e+002
3.306457e+003,1.020974e+002
3.307421e+003,1.036449e+002
3.308385e+003,1.052827e+002
3.309350e+003,1.061342e+002
3.310314e+003,1.069285e+002
3.311278e+003,1.078473e+002
3.312242e+003,1.079867e+002
3.313207e+003,1.075162e+002
3.314171e+003,1.074813e+002
3.315135e+003,1.061429e+002
3.316099e+003,1.055176e+002
3.317063e+003,1.062201e+002
3.318028e+003,1.073875e+002
3.318992e+003,1.094288e+002
3.319956e+003,1.116421e+002
3.320920e+003,1.131364e+002
3.321885e+003,1.134182e+002
3.322849e+003,1.132693e+002
3.323813e+003,1.136981e+002
3.324777e+003,1.138176e+002
3.325742e+003,1.126871e+002
3.326706e+003,1.119535e+002
3.327670e+003,1.132062e+002
3.328634e+003,1.141123e+002
3.329599e+003,1.135203e+002
3.330563e+003,1.141466e+002
3.331527e+003,1.162789e+002
3.332491e+003,1.171271e+002
3.333456e+003,1.157137e+002
3.334420e+003,1.142399e+002
3.335384e+003,1.145787e+002
3.336348e+003,1.172448e+002
3.337313e+003,1.206841e+002
3.338277e+003,1.212322e+002
3.339241e+003,1.200109e+002
3.340205e+003,1.209338e+002
3.341169e+003,1.227090e+002
3.342134e+003,1.226903e+002
3.343098e+003,1.217136e+002
3.344062e+003,1.210471e+002
3.345026e+003,1.210195e+002
3.345990e+003,1.214880e+002
3.346955e+003,1.218789e+002
3.347919e+003,1.211199e+002
3.348883e+003,1.212800e+002
3.349847e+003,1.232874e+002
3.350812e+003,1.253020e+002
3.351776e+003,1.268978e+002
3.352740e+003,1.285815e+002
3.353704e+003,1.297172e+002
3.354668e+003,1.294059e+002
3.355633e+003,1.287300e+002
3.356597e+003,1.296249e+002
3.357561e+003,1.305233e+002
3.358525e+003,1.304080e+002
3.359490e+003,1.296074e+002
3.360454e+003,1.282268e+002
3.361418e+003,1.289792e+002
3.362382e+003,1.320009e+002
3.363347e+003,1.342212e+002
3.364311e+003,1.343174e+002
3.365275e+003,1.334305e+002
3.366239e+003,1.319291e+002
3.367204e+003,1.319409e+002
3.368168e+003,1.337782e+002
3.369132e+003,1.348765e+002
3.370096e+003,1.352788e+002
3.371061e+003,1.350205e+002
3.372025e+003,1.345947e+002
3.372989e+003,1.354623e+002
3.373953e+003,1.363490e+002
3.374917e+003,1.360256e+002
3.375882e+003,1.361221e+002
3.376846e+003,1.375458e+002
3.377810e+003,1.384725e+002
3.378774e+003,1.384771e+002
3.379739e+003,1.381721e+002
3.380703e+003,1.378560e+002
3.381667e+003,1.378590e+002
3.382631e+003,1.381746e+002
3.383596e+003,1.387850e+002
3.384560e+003,1.396139e+002
3.385524e+003,1.395667e+002
3.386488e+003,1.387053e+002
3.387453e+003,1.389557e+002
3.388417e+003,1.395212e+002
3.389381e+003,1.394359e+002
3.390345e+003,1.398765e+002
3.391310e+003,1.404862e+002
3.392274e+003,1.407158e+002
3.393238e+003,1.412244e+002
3.394202e+003,1.423250e+002
3.395167e+003,1.434327e+002
3.396131e+003,1.447219e+002
3.397095e+003,1.455969e+002
3.398059e+003,1.445955e+002
3.399023e+003,1.433693e+002
3.399988e+003,1.420948e+002
3.400952e+003,1.417964e+002
3.401916e+003,1.448087e+002
3.402880e+003,1.471769e+002
3.403844e+003,1.472218e+002
3.404809e+003,1.471031e+002
3.405773e+003,1.478898e+002
3.406737e+003,1.480642e+002
3.407701e+003,1.473219e+002
3.408666e+003,1.473718e+002
3.409630e+003,1.479908e+002
3.410594e+003,1.481112e+002
3.411558e+003,1.474180e+002
3.412522e+003,1.469049e+002
3.413487e+003,1.472435e+002
3.414451e+003,1.486404e+002
3.415415e+003,1.498402e+002
3.416379e+003,1.493356e+002
3.417344e+003,1.488734e+002
3.418308e+003,1.508658e+002
3.419272e+003,1.522874e+002
3.420236e+003,1.519088e+002
3.421201e+003,1.512723e+002
3.422165e+003,1.509856e+002
3.423129e+003,1.521350e+002
3.424093e+003,1.539771e+002
3.425058e+003,1.546014e+002
3.426022e+003,1.539940e+002
3.426986e+003,1.529503e+002
3.427950e+003,1.523214e+002
3.428915e+003,1.546930e+002
3.429879e+003,1.572178e+002
3.430843e+003,1.553114e+002
3.431807e+003,1.542385e+002
3.432771e+003,1.555061e+002
3.433736e+003,1.567095e+002
3.434700e+003,1.570447e+002
3.435664e+003,1.563431e+002
3.436628e+003,1.555912e+002
3.437593e+003,1.564606e+002
3.438557e+003,1.576720e+002
3.439521e+003,1.553239e+002
3.440485e+003,1.522814e+002
3.441450e+003,1.549520e+002
3.442414e+003,1.586976e+002
3.443378e+003,1.585948e+002
3.444342e+003,1.571848e+002
3.445307e+003,1.570131e+002
3.446271e+003,1.588374e+002
3.447235e+003,1.615331e+002
3.448199e+003,1.621759e+002
3.449164e+003,1.597659e+002
3.450128e+003,1.598931e+002
3.451092e+003,1.625234e+002
3.452056e+003,1.611202e+002
3.453021e+003,1.579115e+002
3.453985e+003,1.591903e+002
3.454949e+003,1.617266e+002
3.455913e+003,1.623373e+002
3.456877e+003,1.612794e+002
3.457842e+003,1.592175e+002
3.458806e+003,1.591073e+002
3.459770e+003,1.644376e+002
3.460734e+003,1.660726e+002
3.461698e+003,1.632634e+002
3.462663e+003,1.615308e+002
3.463627e+003,1.617634e+002
3.464591e+003,1.622920e+002
3.465555e+003,1.631172e+002
3.466520e+003,1.654983e+002
3.467484e+003,1.675085e+002
3.468448e+003,1.672012e+002
3.469412e+003,1.659102e+002
3.470376e+003,1.631438e+002
3.471341e+003,1.630140e+002
3.472305e+003,1.657827e+002
3.473269e+003,1.664117e+002
3.474233e+003,1.648845e+002
3.475198e+003,1.638945e+002
3.476162e+003,1.645619e+002
3.477126e+003,1.664990e+002
3.478090e+003,1.683658e+002
3.479055e+003,1.695204e+002
3.480019e+003,1.695801e+002
3.480983e+003,1.682870e+002
3.481947e+003,1.682915e+002
3.482912e+003,1.693384e+002
3.483876e+003,1.710009e+002
3.484840e+003,1.726407e+002
3.485804e+003,1.718237e+002
3.486769e+003,1.694509e+002
3.487733e+003,1.701864e+002
3.488697e+003,1.730386e+002
3.489661e+003,1.734225e+002
3.490625e+003,1.719990e+002
3.491590e+003,1.718914e+002
3.492554e+003,1.723237e+002
3.493518e+003,1.728246e+002
3.494482e+003,1.740872e+002
3.495447e+003,1.752981e+002
3.496411e+003,1.750306e+002
3.497375e+003,1.735143e+002
3.498339e+003,1.732170e+002
3.499304e+003,1.748480e+002
3.500268e+003,1.756376e+002
