9.941663e+001,0.000000e+000
1.003809e+002,2.012283e+002
1.013451e+002,2.014309e+002
1.023093e+002,2.045627e+002
1.032736e+002,2.080771e+002
1.042378e+002,2.111455e+002
1.052020e+002,2.134664e+002
1.061663e+002,2.146323e+002
1.071305e+002,2.141820e+002
1.080947e+002,2.106927e+002
1.090590e+002,2.056322e+002
1.100232e+002,2.006578e+002
1.109874e+002,1.965006e+002
1.119517e+002,1.930674e+002
1.129159e+002,1.903674e+002
1.138801e+002,1.892277e+002
1.148444e+002,1.893667e+002
1.158086e+002,1.900646e+002
1.167728e+002,1.894297e+002
1.177371e+002,1.874855e+002
1.187013e+002,1.862607e+002
1.196655e+002,1.862412e+002
1.206298e+002,1.874292e+002
1.215940e+002,1.886965e+002
1.225582e+002,1.905166e+002
1.235225e+002,1.913405e+002
1.244867e+002,1.907030e+002
1.254509e+002,1.886968e+002
1.264152e+002,1.871383e+002
1.273794e+002,1.851031e+002
1.283436e+002,1.828507e+002
1.293079e+002,1.808313e+002
1.302721e+002,1.797990e+002
1.312363e+002,1.793484e+002
1.322006e+002,1.788677e+002
1.331648e+002,1.782839e+002
1.341290e+002,1.773584e+002
1.350933e+002,1.753102e+002
1.360575e+002,1.718446e+002
1.370217e+002,1.694565e+002
1.379860e+002,1.691625e+002
1.389502e+002,1.709840e+002
1.399144e+002,1.714226e+002
1.408787e+002,1.685649e+002
1.418429e+002,1.655604e+002
1.428071e+002,1.637632e+002
1.437714e+002,1.638586e+002
1.447356e+002,1.642006e+002
1.456998e+002,1.632610e+002
1.466641e+002,1.620107e+002
1.476283e+002,1.611342e+002
1.485925e+002,1.612295e+002
1.495568e+002,1.618622e+002
1.505210e+002,1.622570e+002
1.514852e+002,1.624738e+002
1.524495e+002,1.627413e+002
1.534137e+002,1.635145e+002
1.543779e+002,1.653708e+002
1.553422e+002,1.660042e+002
1.563064e+002,1.645311e+002
1.572706e+002,1.614293e+002
1.582349e+002,1.597495e+002
1.591991e+002,1.609856e+002
1.601633e+002,1.613610e+002
1.611276e+002,1.600370e+002
1.620918e+002,1.569917e+002
1.630560e+002,1.538069e+002
1.640203e+002,1.508298e+002
1.649845e+002,1.482412e+002
1.659487e+002,1.463070e+002
1.669130e+002,1.452329e+002
1.678772e+002,1.450334e+002
1.688414e+002,1.452524e+002
1.698057e+002,1.454542e+002
1.707699e+002,1.453702e+002
1.717341e+002,1.448374e+002
1.726984e+002,1.444237e+002
1.736626e+002,1.444142e+002
1.746268e+002,1.443860e+002
1.755911e+002,1.442227e+002
1.765553e+002,1.439496e+002
1.775195e+002,1.431093e+002
1.784838e+002,1.418575e+002
1.794480e+002,1.411239e+002
1.804122e+002,1.410413e+002
1.813765e+002,1.410708e+002
1.823407e+002,1.386080e+002
1.833049e+002,1.362284e+002
1.842692e+002,1.354257e+002
1.852334e+002,1.365940e+002
1.861976e+002,1.388328e+002
1.871619e+002,1.396758e+002
1.881261e+002,1.395194e+002
1.890903e+002,1.391831e+002
1.900546e+002,1.392037e+002
1.910188e+002,1.396442e+002
1.919830e+002,1.383931e+002
1.929473e+002,1.359180e+002
1.939115e+002,1.341582e+002
1.948757e+002,1.344861e+002
1.958400e+002,1.370004e+002
1.968042e+002,1.372162e+002
1.977684e+002,1.343973e+002
1.987327e+002,1.302717e+002
1.996969e+002,1.268783e+002
2.006611e+002,1.265577e+002
2.016254e+002,1.282177e+002
2.025896e+002,1.308267e+002
2.035538e+002,1.333282e+002
2.045181e+002,1.343719e+002
2.054823e+002,1.311349e+002
2.064465e+002,1.255116e+002
2.074108e+002,1.223185e+002
2.083750e+002,1.228861e+002
2.093392e+002,1.269077e+002
2.103035e+002,1.299807e+002
2.112677e+002,1.311320e+002
2.122319e+002,1.319272e+002
2.131962e+002,1.324213e+002
2.141604e+002,1.322875e+002
2.151246e+002,1.309259e+002
2.160889e+002,1.283180e+002
2.170531e+002,1.265369e+002
2.180173e+002,1.263698e+002
2.189816e+002,1.278741e+002
2.199458e+002,1.287377e+002
2.209100e+002,1.281489e+002
2.218743e+002,1.271128e+002
2.228385e+002,1.260677e+002
2.238027e+002,1.252590e+002
2.247670e+002,1.247202e+002
2.257312e+002,1.248862e+002
2.266954e+002,1.256180e+002
2.276597e+002,1.265540e+002
2.286239e+002,1.273127e+002
2.295881e+002,1.287970e+002
2.305524e+002,1.310162e+002
2.315166e+002,1.337948e+002
2.324808e+002,1.358445e+002
2.334451e+002,1.352720e+002
2.344093e+002,1.287689e+002
2.353735e+002,1.233657e+002
2.363378e+002,1.215303e+002
2.373020e+002,1.227802e+002
2.382662e+002,1.251493e+002
2.392305e+002,1.264250e+002
2.401947e+002,1.272819e+002
2.411589e+002,1.284092e+002
2.421232e+002,1.298621e+002
2.430874e+002,1.313591e+002
2.440516e+002,1.318850e+002
2.450159e+002,1.314762e+002
2.459801e+002,1.303920e+002
2.469443e+002,1.284738e+002
2.479086e+002,1.257406e+002
2.488728e+002,1.259496e+002
2.498370e+002,1.304143e+002
2.508013e+002,1.340081e+002
2.517655e+002,1.343998e+002
2.527297e+002,1.309833e+002
2.536940e+002,1.277290e+002
2.546582e+002,1.267559e+002
2.556224e+002,1.279865e+002
2.565867e+002,1.315609e+002
2.575509e+002,1.372526e+002
2.585151e+002,1.423151e+002
2.594794e+002,1.430525e+002
2.604436e+002,1.410382e+002
2.614078e+002,1.385208e+002
2.623721e+002,1.378468e+002
2.633363e+002,1.394832e+002
2.643005e+002,1.390912e+002
2.652648e+002,1.364718e+002
2.662290e+002,1.334857e+002
2.671932e+002,1.322064e+002
2.681575e+002,1.322498e+002
2.691217e+002,1.333733e+002
2.700859e+002,1.367756e+002
2.710502e+002,1.411783e+002
2.720144e+002,1.448553e+002
2.729786e+002,1.469564e+002
2.739429e+002,1.483657e+002
2.749071e+002,1.485669e+002
2.758713e+002,1.477076e+002
2.768356e+002,1.463167e+002
2.777998e+002,1.456797e+002
2.787640e+002,1.454387e+002
2.797283e+002,1.441956e+002
2.806925e+002,1.420753e+002
2.816567e+002,1.400079e+002
2.826210e+002,1.405122e+002
2.835852e+002,1.445636e+002
2.845494e+002,1.483877e+002
2.855137e+002,1.512211e+002
2.864779e+002,1.525781e+002
2.874421e+002,1.517561e+002
2.884064e+002,1.474871e+002
2.893706e+002,1.445173e+002
2.903348e+002,1.447623e+002
2.912991e+002,1.481038e+002
2.922633e+002,1.516667e+002
2.932275e+002,1.514210e+002
2.941918e+002,1.503633e+002
2.951560e+002,1.501016e+002
2.961202e+002,1.511147e+002
2.970845e+002,1.526877e+002
2.980487e+002,1.530201e+002
2.990129e+002,1.529563e+002
2.999772e+002,1.531456e+002
3.009414e+002,1.541085e+002
3.019056e+002,1.561698e+002
3.028699e+002,1.583350e+002
3.038341e+002,1.591025e+002
3.047983e+002,1.591974e+002
3.057626e+002,1.590920e+002
3.067268e+002,1.592025e+002
3.076910e+002,1.606445e+002
3.086553e+002,1.645608e+002
3.096195e+002,1.673463e+002
3.105837e+002,1.665613e+002
3.115480e+002,1.611372e+002
3.125122e+002,1.546038e+002
3.134764e+002,1.519177e+002
3.144407e+002,1.523810e+002
3.154049e+002,1.549614e+002
3.163691e+002,1.584503e+002
3.173334e+002,1.618512e+002
3.182976e+002,1.639778e+002
3.192618e+002,1.654222e+002
3.202261e+002,1.661274e+002
3.211903e+002,1.660985e+002
3.221545e+002,1.655964e+002
3.231188e+002,1.647853e+002
3.240830e+002,1.623320e+002
3.250472e+002,1.601422e+002
3.260115e+002,1.602072e+002
3.269757e+002,1.642682e+002
3.279399e+002,1.674888e+002
3.289042e+002,1.664177e+002
3.298684e+002,1.635089e+002
3.308326e+002,1.614856e+002
3.317969e+002,1.629667e+002
3.327611e+002,1.674976e+002
3.337253e+002,1.706310e+002
3.346896e+002,1.721182e+002
3.356538e+002,1.727693e+002
3.366180e+002,1.738251e+002
3.375823e+002,1.759758e+002
3.385465e+002,1.763856e+002
3.395107e+002,1.747854e+002
3.404750e+002,1.726808e+002
3.414392e+002,1.715980e+002
3.424034e+002,1.716340e+002
3.433677e+002,1.720986e+002
3.443319e+002,1.730734e+002
3.452961e+002,1.740563e+002
3.462604e+002,1.746517e+002
3.472246e+002,1.747728e+002
3.481888e+002,1.750823e+002
3.491531e+002,1.753859e+002
3.501173e+002,1.758914e+002
3.510815e+002,1.771464e+002
3.520458e+002,1.799233e+002
3.530100e+002,1.837037e+002
3.539742e+002,1.850972e+002
3.549385e+002,1.838125e+002
3.559027e+002,1.817256e+002
3.568669e+002,1.818722e+002
3.578312e+002,1.876459e+002
3.587954e+002,1.922557e+002
3.597596e+002,1.918887e+002
3.607239e+002,1.886815e+002
3.616881e+002,1.863893e+002
3.626523e+002,1.889878e+002
3.636166e+002,1.923922e+002
3.645808e+002,1.944475e+002
3.655450e+002,1.952444e+002
3.665093e+002,1.947504e+002
3.674735e+002,1.924315e+002
3.684377e+002,1.886547e+002
3.694020e+002,1.869038e+002
3.703662e+002,1.873652e+002
3.713304e+002,1.891223e+002
3.722947e+002,1.905509e+002
3.732589e+002,1.910063e+002
3.742231e+002,1.910177e+002
3.751874e+002,1.905182e+002
3.761516e+002,1.903331e+002
3.771158e+002,1.916443e+002
3.780801e+002,1.959794e+002
3.790443e+002,1.989438e+002
3.800085e+002,1.982556e+002
3.809728e+002,1.957915e+002
3.819370e+002,1.940997e+002
3.829012e+002,1.956671e+002
3.838655e+002,1.990659e+002
3.848297e+002,2.012000e+002
3.857939e+002,2.018214e+002
3.867582e+002,2.013340e+002
3.877224e+002,2.006066e+002
3.886866e+002,2.008934e+002
3.896509e+002,2.017310e+002
3.906151e+002,2.022252e+002
3.915793e+002,2.025874e+002
3.925436e+002,2.032167e+002
3.935078e+002,2.037076e+002
3.944720e+002,2.035612e+002
3.954363e+002,2.042546e+002
3.964005e+002,2.059764e+002
3.973647e+002,2.085591e+002
3.983290e+002,2.115803e+002
3.992932e+002,2.125823e+002
4.002574e+002,2.104498e+002
4.012217e+002,2.064115e+002
4.021859e+002,2.019038e+002
4.031501e+002,1.983251e+002
4.041144e+002,1.967684e+002
4.050786e+002,1.982491e+002
4.060428e+002,2.025872e+002
4.070071e+002,2.072732e+002
4.079713e+002,2.093254e+002
4.089355e+002,2.061370e+002
4.098998e+002,2.049373e+002
4.108640e+002,2.073250e+002
4.118282e+002,2.107777e+002
4.127925e+002,2.135964e+002
4.137567e+002,2.154143e+002
4.147209e+002,2.153877e+002
4.156852e+002,2.129537e+002
4.166494e+002,2.099448e+002
4.176136e+002,2.079390e+002
4.185779e+002,2.081389e+002
4.195421e+002,2.109912e+002
4.205063e+002,2.152064e+002
4.214706e+002,2.186346e+002
4.224348e+002,2.196639e+002
4.233990e+002,2.173544e+002
4.243633e+002,2.117959e+002
4.253275e+002,2.080897e+002
4.262917e+002,2.082678e+002
4.272560e+002,2.104268e+002
4.282202e+002,2.137213e+002
4.291844e+002,2.177275e+002
4.301487e+002,2.206344e+002
4.311129e+002,2.214132e+002
4.320771e+002,2.216464e+002
4.330414e+002,2.219089e+002
4.340056e+002,2.223892e+002
4.349698e+002,2.228805e+002
4.359341e+002,2.228943e+002
4.368983e+002,2.234409e+002
4.378625e+002,2.255990e+002
4.388268e+002,2.294641e+002
4.397910e+002,2.341355e+002
4.407552e+002,2.366707e+002
4.417195e+002,2.363253e+002
4.426837e+002,2.345917e+002
4.436479e+002,2.318702e+002
4.446122e+002,2.288180e+002
4.455764e+002,2.269169e+002
4.465406e+002,2.269729e+002
4.475049e+002,2.279530e+002
4.484691e+002,2.293218e+002
4.494333e+002,2.307451e+002
4.503976e+002,2.321521e+002
4.513618e+002,2.343169e+002
4.523260e+002,2.352688e+002
4.532903e+002,2.333364e+002
4.542545e+002,2.292218e+002
4.552188e+002,2.246426e+002
4.561830e+002,2.220682e+002
4.571472e+002,2.228114e+002
4.581115e+002,2.252969e+002
4.590757e+002,2.294739e+002
4.600399e+002,2.340001e+002
4.610042e+002,2.367264e+002
4.619684e+002,2.351489e+002
4.629326e+002,2.337858e+002
4.638969e+002,2.331580e+002
4.648611e+002,2.328213e+002
4.658253e+002,2.323966e+002
4.667896e+002,2.319408e+002
4.677538e+002,2.315841e+002
4.687180e+002,2.328018e+002
4.696823e+002,2.345292e+002
4.706465e+002,2.348486e+002
4.716107e+002,2.322349e+002
4.725750e+002,2.282290e+002
4.735392e+002,2.279198e+002
4.745034e+002,2.300216e+002
4.754677e+002,2.320940e+002
4.764319e+002,2.326373e+002
4.773961e+002,2.318010e+002
4.783604e+002,2.321447e+002
4.793246e+002,2.339841e+002
4.802888e+002,2.356117e+002
4.812531e+002,2.369089e+002
4.822173e+002,2.378730e+002
4.831815e+002,2.370194e+002
4.841458e+002,2.316134e+002
4.851100e+002,2.267589e+002
4.860742e+002,2.245409e+002
4.870385e+002,2.249570e+002
4.880027e+002,2.262965e+002
4.889669e+002,2.268673e+002
4.899312e+002,2.275114e+002
4.908954e+002,2.283115e+002
4.918596e+002,2.287505e+002
4.928239e+002,2.285272e+002
4.937881e+002,2.279944e+002
4.947523e+002,2.278795e+002
4.957166e+002,2.267338e+002
4.966808e+002,2.252546e+002
4.976450e+002,2.241396e+002
4.986093e+002,2.234941e+002
4.995735e+002,2.212203e+002
5.005377e+002,2.192405e+002
5.015020e+002,2.188367e+002
5.024662e+002,2.190331e+002
5.034304e+002,2.191675e+002
5.043947e+002,2.192782e+002
5.053589e+002,2.197605e+002
5.063231e+002,2.194934e+002
5.072874e+002,2.189398e+002
5.082516e+002,2.193220e+002
5.092158e+002,2.215433e+002
5.101801e+002,2.254541e+002
5.111443e+002,2.271304e+002
5.121085e+002,2.260322e+002
5.130728e+002,2.247513e+002
5.140370e+002,2.242961e+002
5.150012e+002,2.246758e+002
5.159655e+002,2.260781e+002
5.169297e+002,2.306505e+002
5.178939e+002,2.346042e+002
5.188582e+002,2.361459e+002
5.198224e+002,2.358593e+002
5.207866e+002,2.364719e+002
5.217509e+002,2.411177e+002
5.227151e+002,2.462139e+002
5.236793e+002,2.486874e+002
5.246436e+002,2.487675e+002
5.256078e+002,2.482874e+002
5.265720e+002,2.500562e+002
5.275363e+002,2.548353e+002
5.285005e+002,2.592780e+002
5.294647e+002,2.632706e+002
5.304290e+002,2.667979e+002
5.313932e+002,2.698613e+002
5.323574e+002,2.721852e+002
5.333217e+002,2.744026e+002
5.342859e+002,2.752880e+002
5.352501e+002,2.765208e+002
5.362144e+002,2.800854e+002
5.371786e+002,2.871099e+002
5.381428e+002,2.949496e+002
5.391071e+002,3.010649e+002
5.400713e+002,3.060203e+002
5.410355e+002,3.100078e+002
5.419998e+002,3.130488e+002
5.429640e+002,3.150566e+002
5.439282e+002,3.166447e+002
5.448925e+002,3.190071e+002
5.458567e+002,3.213260e+002
5.468209e+002,3.224542e+002
5.477852e+002,3.225964e+002
5.487494e+002,3.241157e+002
5.497136e+002,3.277893e+002
5.506779e+002,3.308251e+002
5.516421e+002,3.341074e+002
5.526063e+002,3.371556e+002
5.535706e+002,3.392004e+002
5.545348e+002,3.401665e+002
5.554990e+002,3.404521e+002
5.564633e+002,3.389471e+002
5.574275e+002,3.365226e+002
5.583917e+002,3.344218e+002
5.593560e+002,3.336959e+002
5.603202e+002,3.344008e+002
5.612844e+002,3.361697e+002
5.622487e+002,3.385226e+002
5.632129e+002,3.396533e+002
5.641771e+002,3.381748e+002
5.651414e+002,3.339991e+002
5.661056e+002,3.311013e+002
5.670698e+002,3.322960e+002
5.680341e+002,3.330814e+002
5.689983e+002,3.308676e+002
5.699625e+002,3.261068e+002
5.709268e+002,3.219751e+002
5.718910e+002,3.223331e+002
5.728552e+002,3.220311e+002
5.738195e+002,3.175439e+002
5.747837e+002,3.109604e+002
5.757479e+002,3.059795e+002
5.767122e+002,3.060632e+002
5.776764e+002,3.093585e+002
5.786406e+002,3.088669e+002
5.796049e+002,3.047705e+002
5.805691e+002,2.994436e+002
5.815333e+002,2.948212e+002
5.824976e+002,2.910464e+002
5.834618e+002,2.895709e+002
5.844260e+002,2.911163e+002
5.853903e+002,2.931860e+002
5.863545e+002,2.949548e+002
5.873187e+002,2.956370e+002
5.882830e+002,2.937849e+002
5.892472e+002,2.877615e+002
5.902114e+002,2.825022e+002
5.911757e+002,2.804473e+002
5.921399e+002,2.813173e+002
5.931041e+002,2.832579e+002
5.940684e+002,2.836022e+002
5.950326e+002,2.803784e+002
5.959968e+002,2.752488e+002
5.969611e+002,2.692972e+002
5.979253e+002,2.635143e+002
5.988895e+002,2.583706e+002
5.998538e+002,2.533889e+002
6.008180e+002,2.501919e+002
6.017822e+002,2.488073e+002
6.027465e+002,2.478392e+002
6.037107e+002,2.470922e+002
6.046749e+002,2.467844e+002
6.056392e+002,2.466678e+002
6.066034e+002,2.453907e+002
6.075676e+002,2.432050e+002
6.085319e+002,2.404601e+002
6.094961e+002,2.374207e+002
6.104603e+002,2.341981e+002
6.114246e+002,2.307380e+002
6.123888e+002,2.268002e+002
6.133530e+002,2.234789e+002
6.143173e+002,2.214722e+002
6.152815e+002,2.200897e+002
6.162457e+002,2.182557e+002
6.172100e+002,2.157231e+002
6.181742e+002,2.140294e+002
6.191384e+002,2.124720e+002
6.201027e+002,2.105884e+002
6.210669e+002,2.080417e+002
6.220311e+002,2.049753e+002
6.229954e+002,2.024628e+002
6.239596e+002,2.022574e+002
6.249238e+002,2.012358e+002
6.258881e+002,1.980093e+002
6.268523e+002,1.930573e+002
6.278165e+002,1.876036e+002
6.287808e+002,1.825021e+002
6.297450e+002,1.779192e+002
6.307092e+002,1.765244e+002
6.316735e+002,1.785682e+002
6.326377e+002,1.817991e+002
6.336019e+002,1.844362e+002
6.345662e+002,1.879861e+002
6.355304e+002,1.880891e+002
6.364946e+002,1.818160e+002
6.374589e+002,1.751836e+002
6.384231e+002,1.714449e+002
6.393873e+002,1.709293e+002
6.403516e+002,1.708795e+002
6.413158e+002,1.691084e+002
6.422800e+002,1.660854e+002
6.432443e+002,1.621758e+002
6.442085e+002,1.581429e+002
6.451727e+002,1.551793e+002
6.461370e+002,1.546456e+002
6.471012e+002,1.561566e+002
6.480654e+002,1.546807e+002
6.490297e+002,1.495945e+002
6.499939e+002,1.444314e+002
6.509581e+002,1.426077e+002
6.519224e+002,1.447900e+002
6.528866e+002,1.457079e+002
6.538508e+002,1.444620e+002
6.548151e+002,1.415376e+002
6.557793e+002,1.368861e+002
6.567435e+002,1.311736e+002
6.577078e+002,1.257631e+002
6.586720e+002,1.209191e+002
6.596362e+002,1.172554e+002
6.606005e+002,1.161423e+002
6.615647e+002,1.176178e+002
6.625289e+002,1.206902e+002
6.634932e+002,1.237982e+002
6.644574e+002,1.256831e+002
6.654216e+002,1.245200e+002
6.663859e+002,1.200490e+002
6.673501e+002,1.150858e+002
6.683143e+002,1.121166e+002
6.692786e+002,1.118595e+002
6.702428e+002,1.114602e+002
6.712070e+002,1.080273e+002
6.721713e+002,1.052174e+002
6.731355e+002,1.043678e+002
6.740997e+002,1.044198e+002
6.750640e+002,1.032073e+002
6.760282e+002,9.910938e+001
6.769924e+002,9.474768e+001
6.779567e+002,9.355237e+001
6.789209e+002,9.471643e+001
6.798851e+002,9.605090e+001
6.808494e+002,9.557312e+001
6.818136e+002,9.273193e+001
6.827778e+002,8.937585e+001
6.837421e+002,8.741797e+001
6.847063e+002,8.539380e+001
6.856705e+002,8.195691e+001
6.866348e+002,7.761243e+001
6.875990e+002,7.459375e+001
6.885632e+002,7.287476e+001
6.895275e+002,7.112805e+001
6.904917e+002,7.140039e+001
6.914559e+002,7.308459e+001
6.924202e+002,7.472180e+001
6.933844e+002,7.498132e+001
6.943486e+002,7.397424e+001
6.953129e+002,7.207727e+001
6.962771e+002,6.909412e+001
6.972413e+002,6.541797e+001
6.982056e+002,6.171448e+001
6.991698e+002,5.895654e+001
7.001340e+002,5.845471e+001
7.010983e+002,6.213135e+001
7.020625e+002,6.412561e+001
7.030267e+002,6.291248e+001
7.039910e+002,5.994580e+001
7.049552e+002,5.740173e+001
7.059194e+002,5.653174e+001
7.068837e+002,5.582837e+001
7.078479e+002,5.342493e+001
7.088121e+002,5.099670e+001
7.097764e+002,4.959900e+001
7.107406e+002,4.929016e+001
7.117048e+002,4.935547e+001
7.126691e+002,4.943103e+001
7.136333e+002,4.942480e+001
7.145975e+002,4.753528e+001
7.155618e+002,4.331006e+001
7.165260e+002,3.905408e+001
7.174902e+002,3.791199e+001
7.184545e+002,4.124792e+001
7.194187e+002,4.249146e+001
7.203829e+002,3.977820e+001
7.213472e+002,3.760315e+001
7.223114e+002,3.912219e+001
7.232756e+002,4.375146e+001
7.242399e+002,4.675195e+001
7.252041e+002,4.306458e+001
7.261683e+002,3.842175e+001
7.271326e+002,3.764209e+001
7.280968e+002,4.015918e+001
7.290610e+002,4.367358e+001
7.300253e+002,4.583728e+001
7.309895e+002,4.590747e+001
7.319537e+002,4.333032e+001
7.329180e+002,3.816309e+001
7.338822e+002,3.345850e+001
7.348464e+002,3.090356e+001
7.358107e+002,3.075427e+001
7.367749e+002,3.214197e+001
7.377391e+002,3.565051e+001
7.387034e+002,3.882373e+001
7.396676e+002,4.086218e+001
7.406318e+002,4.188708e+001
7.415961e+002,4.233008e+001
7.425603e+002,4.260852e+001
7.435245e+002,4.286414e+001
7.444888e+002,4.266479e+001
7.454530e+002,4.241821e+001
7.464172e+002,4.276001e+001
7.473815e+002,4.384814e+001
7.483457e+002,4.542029e+001
7.493099e+002,4.700659e+001
7.502742e+002,4.924817e+001
7.512384e+002,4.946973e+001
7.522026e+002,4.588086e+001
7.531669e+002,4.194312e+001
7.541311e+002,4.088757e+001
7.550953e+002,4.325012e+001
7.560596e+002,4.580469e+001
7.570238e+002,4.670825e+001
7.579880e+002,4.749475e+001
7.589523e+002,4.922632e+001
7.599165e+002,5.180322e+001
7.608807e+002,5.441736e+001
7.618450e+002,5.621509e+001
7.628092e+002,5.757800e+001
7.637734e+002,6.007922e+001
7.647377e+002,6.365283e+001
7.657019e+002,6.572278e+001
7.666661e+002,6.355945e+001
7.676304e+002,5.692554e+001
7.685946e+002,5.264868e+001
7.695588e+002,5.336133e+001
7.705231e+002,5.513916e+001
7.714873e+002,5.814636e+001
7.724515e+002,6.120728e+001
7.734158e+002,6.265637e+001
7.743800e+002,6.153186e+001
7.753442e+002,5.961731e+001
7.763085e+002,5.835193e+001
7.772727e+002,5.832092e+001
7.782369e+002,5.981104e+001
7.792012e+002,6.238330e+001
7.801654e+002,6.510510e+001
7.811296e+002,6.715784e+001
7.820939e+002,6.939636e+001
7.830581e+002,7.037439e+001
7.840223e+002,6.926794e+001
7.849866e+002,6.824426e+001
7.859508e+002,6.933667e+001
7.869150e+002,7.235583e+001
7.878793e+002,7.353992e+001
7.888435e+002,7.158447e+001
7.898077e+002,6.914758e+001
7.907720e+002,6.739075e+001
7.917362e+002,6.670398e+001
7.927004e+002,6.680054e+001
7.936647e+002,6.696582e+001
7.946289e+002,6.676208e+001
7.955931e+002,6.703113e+001
7.965574e+002,6.732031e+001
7.975216e+002,6.613269e+001
7.984858e+002,6.290186e+001
7.994501e+002,5.875378e+001
8.004143e+002,5.654675e+001
8.013785e+002,5.505237e+001
8.023428e+002,5.544910e+001
8.033070e+002,5.975439e+001
8.042712e+002,6.471924e+001
8.052355e+002,6.639160e+001
8.061997e+002,6.351721e+001
8.071639e+002,5.968872e+001
8.081282e+002,5.800122e+001
8.090924e+002,5.670532e+001
8.100566e+002,5.383496e+001
8.110209e+002,4.984497e+001
8.119851e+002,4.719104e+001
8.129493e+002,4.883447e+001
8.139136e+002,5.376758e+001
8.148778e+002,5.439490e+001
8.158420e+002,5.033179e+001
8.168063e+002,4.609338e+001
8.177705e+002,4.487793e+001
8.187347e+002,4.637512e+001
8.196990e+002,4.644861e+001
8.206632e+002,4.289673e+001
8.216274e+002,3.886133e+001
8.225917e+002,3.566675e+001
8.235559e+002,3.373975e+001
8.245201e+002,3.280994e+001
8.254844e+002,3.218237e+001
8.264486e+002,3.138586e+001
8.274128e+002,3.146875e+001
8.283771e+002,3.201538e+001
8.293413e+002,3.144763e+001
8.303055e+002,2.916455e+001
8.312698e+002,2.583423e+001
8.322340e+002,2.259106e+001
8.331982e+002,1.853418e+001
8.341625e+002,1.718262e+001
8.351267e+002,2.156201e+001
8.360909e+002,2.640063e+001
8.370552e+002,2.848572e+001
8.380194e+002,2.759424e+001
8.389836e+002,2.585571e+001
8.399479e+002,2.466284e+001
8.409121e+002,2.394751e+001
8.418763e+002,2.287817e+001
8.428406e+002,2.134802e+001
8.438048e+002,1.957202e+001
8.447690e+002,1.796802e+001
8.457333e+002,1.711633e+001
8.466975e+002,1.808984e+001
8.476617e+002,2.123047e+001
8.486260e+002,2.299097e+001
8.495902e+002,2.138855e+001
8.505544e+002,1.782019e+001
8.515187e+002,1.450549e+001
8.524829e+002,1.182117e+001
8.534471e+002,9.693604e+000
8.544114e+002,8.173096e+000
8.553756e+002,7.804565e+000
8.563398e+002,9.632935e+000
8.573041e+002,1.270557e+001
8.582683e+002,1.480359e+001
8.592325e+002,1.399304e+001
8.601968e+002,1.162341e+001
8.611610e+002,1.062097e+001
8.621252e+002,1.065125e+001
8.630895e+002,1.102075e+001
8.640537e+002,1.182251e+001
8.650179e+002,1.317554e+001
8.659822e+002,1.418530e+001
8.669464e+002,1.341492e+001
8.679106e+002,1.186682e+001
8.688749e+002,8.170044e+000
8.698391e+002,4.427490e+000
8.708033e+002,3.639771e+000
8.717676e+002,6.771851e+000
8.727318e+002,1.070679e+001
8.736960e+002,1.216223e+001
8.746603e+002,1.258228e+001
8.756245e+002,1.286035e+001
8.765887e+002,1.264258e+001
8.775530e+002,1.183069e+001
8.785172e+002,1.082849e+001
8.794814e+002,1.027539e+001
8.804457e+002,9.585327e+000
8.814099e+002,7.337646e+000
8.823741e+002,7.064697e+000
8.833384e+002,1.074646e+001
8.843026e+002,1.522168e+001
8.852668e+002,1.616589e+001
8.862311e+002,1.309900e+001
8.871953e+002,9.890015e+000
8.881595e+002,7.834473e+000
8.891238e+002,6.917603e+000
8.900880e+002,6.863647e+000
8.910522e+002,7.324951e+000
8.920165e+002,8.048218e+000
8.929807e+002,8.952271e+000
8.939449e+002,9.843384e+000
8.949092e+002,9.928467e+000
8.958734e+002,9.394165e+000
8.968376e+002,9.864868e+000
8.978019e+002,1.239417e+001
8.987661e+002,1.587488e+001
8.997303e+002,1.735291e+001
9.006946e+002,1.627063e+001
9.016588e+002,1.463550e+001
9.026230e+002,1.250146e+001
9.035873e+002,1.134277e+001
9.045515e+002,1.177698e+001
9.055157e+002,1.374585e+001
9.064800e+002,1.711157e+001
9.074442e+002,2.278503e+001
9.084084e+002,2.796729e+001
9.093727e+002,2.834058e+001
9.103369e+002,2.520935e+001
9.113011e+002,2.313098e+001
9.122654e+002,2.505029e+001
9.132296e+002,2.958313e+001
9.141938e+002,3.053857e+001
9.151581e+002,2.381152e+001
9.161223e+002,2.098669e+001
9.170865e+002,2.466528e+001
9.180508e+002,3.036658e+001
9.190150e+002,3.385620e+001
9.199792e+002,3.437683e+001
9.209435e+002,3.492261e+001
9.219077e+002,3.767212e+001
9.228719e+002,4.012830e+001
9.238362e+002,4.187317e+001
9.248004e+002,4.334167e+001
9.257646e+002,4.435364e+001
9.267289e+002,4.447107e+001
9.276931e+002,4.388159e+001
9.286573e+002,4.431970e+001
9.296216e+002,4.539185e+001
9.305858e+002,4.670886e+001
9.315500e+002,4.943518e+001
9.325143e+002,5.264697e+001
9.334785e+002,5.534424e+001
9.344427e+002,5.752417e+001
9.354070e+002,5.881653e+001
9.363712e+002,5.647473e+001
9.373354e+002,5.506750e+001
9.382997e+002,5.757642e+001
9.392639e+002,6.259534e+001
9.402281e+002,6.729224e+001
9.411924e+002,6.979028e+001
9.421566e+002,7.060913e+001
9.431208e+002,7.093433e+001
9.440851e+002,7.041833e+001
9.450493e+002,6.964294e+001
9.460135e+002,6.919043e+001
9.469778e+002,6.968103e+001
9.479420e+002,7.186536e+001
9.489063e+002,7.598962e+001
9.498705e+002,7.853186e+001
9.508347e+002,7.785278e+001
9.517990e+002,7.681750e+001
9.527632e+002,7.572852e+001
9.537274e+002,7.482947e+001
9.546917e+002,7.448608e+001
9.556559e+002,7.496838e+001
9.566201e+002,7.597620e+001
9.575844e+002,7.717932e+001
9.585486e+002,7.804919e+001
9.595128e+002,7.791345e+001
9.604771e+002,7.709790e+001
9.614413e+002,7.697046e+001
9.624055e+002,7.899109e+001
9.633698e+002,8.332520e+001
9.643340e+002,8.657019e+001
9.652982e+002,8.711072e+001
9.662625e+002,8.633008e+001
9.672267e+002,8.568298e+001
9.681909e+002,8.605688e+001
9.691552e+002,8.724304e+001
9.701194e+002,8.810547e+001
9.710836e+002,8.761487e+001
9.720479e+002,8.453748e+001
9.730121e+002,8.079187e+001
9.739763e+002,7.895581e+001
9.749406e+002,8.003052e+001
9.759048e+002,8.337769e+001
9.768690e+002,8.780835e+001
9.778333e+002,9.270959e+001
9.787975e+002,9.784387e+001
9.797617e+002,1.034379e+002
9.807260e+002,1.070327e+002
9.816902e+002,1.086603e+002
9.826544e+002,1.100406e+002
9.836187e+002,1.123821e+002
9.845829e+002,1.155615e+002
9.855471e+002,1.188873e+002
9.865114e+002,1.222869e+002
9.874756e+002,1.241438e+002
9.884398e+002,1.233723e+002
9.894041e+002,1.209893e+002
9.903683e+002,1.187566e+002
9.913325e+002,1.177108e+002
9.922968e+002,1.175060e+002
9.932610e+002,1.175603e+002
9.942252e+002,1.194281e+002
9.951895e+002,1.198344e+002
9.961537e+002,1.155903e+002
9.971179e+002,1.111011e+002
9.980822e+002,1.110933e+002
9.990464e+002,1.158429e+002
1.000011e+003,1.207772e+002
1.000975e+003,1.240909e+002
1.001939e+003,1.252196e+002
1.002903e+003,1.235054e+002
1.003868e+003,1.203439e+002
1.004832e+003,1.177158e+002
1.005796e+003,1.168796e+002
1.006760e+003,1.177915e+002
1.007724e+003,1.194742e+002
1.008689e+003,1.213380e+002
1.009653e+003,1.234901e+002
1.010617e+003,1.259189e+002
1.011581e+003,1.273016e+002
1.012546e+003,1.266124e+002
1.013510e+003,1.250012e+002
1.014474e+003,1.258818e+002
1.015438e+003,1.314218e+002
1.016403e+003,1.361744e+002
1.017367e+003,1.364474e+002
1.018331e+003,1.350029e+002
1.019295e+003,1.343468e+002
1.020260e+003,1.354492e+002
1.021224e+003,1.383058e+002
1.022188e+003,1.428361e+002
1.023152e+003,1.481672e+002
1.024116e+003,1.494196e+002
1.025081e+003,1.460364e+002
1.026045e+003,1.449407e+002
1.027009e+003,1.502340e+002
1.027973e+003,1.586331e+002
1.028938e+003,1.644785e+002
1.029902e+003,1.675857e+002
1.030866e+003,1.700684e+002
1.031830e+003,1.712565e+002
1.032795e+003,1.732898e+002
1.033759e+003,1.772854e+002
1.034723e+003,1.820277e+002
1.035687e+003,1.859565e+002
1.036651e+003,1.885004e+002
1.037616e+003,1.902574e+002
1.038580e+003,1.911074e+002
1.039544e+003,1.906141e+002
1.040508e+003,1.910739e+002
1.041473e+003,1.936786e+002
1.042437e+003,1.976891e+002
1.043401e+003,2.019783e+002
1.044365e+003,2.063523e+002
1.045330e+003,2.120858e+002
1.046294e+003,2.214957e+002
1.047258e+003,2.268706e+002
1.048222e+003,2.235544e+002
1.049187e+003,2.192258e+002
1.050151e+003,2.217078e+002
1.051115e+003,2.313199e+002
1.052079e+003,2.410870e+002
1.053043e+003,2.444482e+002
1.054008e+003,2.444424e+002
1.054972e+003,2.484657e+002
1.055936e+003,2.544299e+002
1.056900e+003,2.586082e+002
1.057865e+003,2.601743e+002
1.058829e+003,2.610065e+002
1.059793e+003,2.637480e+002
1.060757e+003,2.693405e+002
1.061722e+003,2.745742e+002
1.062686e+003,2.766053e+002
1.063650e+003,2.781694e+002
1.064614e+003,2.801903e+002
1.065578e+003,2.826495e+002
1.066543e+003,2.859784e+002
1.067507e+003,2.908628e+002
1.068471e+003,2.966104e+002
1.069435e+003,3.004257e+002
1.070400e+003,3.025155e+002
1.071364e+003,3.065535e+002
1.072328e+003,3.127455e+002
1.073292e+003,3.183740e+002
1.074257e+003,3.215272e+002
1.075221e+003,3.232677e+002
1.076185e+003,3.269996e+002
1.077149e+003,3.343586e+002
1.078114e+003,3.402054e+002
1.079078e+003,3.428046e+002
1.080042e+003,3.446798e+002
1.081006e+003,3.464364e+002
1.081970e+003,3.481071e+002
1.082935e+003,3.503955e+002
1.083899e+003,3.546038e+002
1.084863e+003,3.606930e+002
1.085827e+003,3.678361e+002
1.086792e+003,3.742178e+002
1.087756e+003,3.758730e+002
1.088720e+003,3.712223e+002
1.089684e+003,3.652670e+002
1.090649e+003,3.643254e+002
1.091613e+003,3.691017e+002
1.092577e+003,3.734777e+002
1.093541e+003,3.752991e+002
1.094505e+003,3.755116e+002
1.095470e+003,3.747798e+002
1.096434e+003,3.738300e+002
1.097398e+003,3.729746e+002
1.098362e+003,3.722993e+002
1.099327e+003,3.720123e+002
1.100291e+003,3.725555e+002
1.101255e+003,3.734060e+002
1.102219e+003,3.722621e+002
1.103184e+003,3.684899e+002
1.104148e+003,3.642745e+002
1.105112e+003,3.616582e+002
1.106076e+003,3.600922e+002
1.107041e+003,3.574219e+002
1.108005e+003,3.531062e+002
1.108969e+003,3.494873e+002
1.109933e+003,3.462242e+002
1.110897e+003,3.420145e+002
1.111862e+003,3.373538e+002
1.112826e+003,3.328767e+002
1.113790e+003,3.292567e+002
1.114754e+003,3.264304e+002
1.115719e+003,3.229824e+002
1.116683e+003,3.164095e+002
1.117647e+003,3.071515e+002
1.118611e+003,3.011965e+002
1.119576e+003,3.003286e+002
1.120540e+003,3.002903e+002
1.121504e+003,2.969847e+002
1.122468e+003,2.911923e+002
1.123432e+003,2.875946e+002
1.124397e+003,2.880256e+002
1.125361e+003,2.841014e+002
1.126325e+003,2.712280e+002
1.127289e+003,2.600657e+002
1.128254e+003,2.548962e+002
1.129218e+003,2.531714e+002
1.130182e+003,2.508188e+002
1.131146e+003,2.462516e+002
1.132111e+003,2.411199e+002
1.133075e+003,2.375989e+002
1.134039e+003,2.357080e+002
1.135003e+003,2.344097e+002
1.135968e+003,2.340435e+002
1.136932e+003,2.319768e+002
1.137896e+003,2.263823e+002
1.138860e+003,2.186929e+002
1.139824e+003,2.117203e+002
1.140789e+003,2.056864e+002
1.141753e+003,2.017343e+002
1.142717e+003,2.001747e+002
1.143681e+003,1.978567e+002
1.144646e+003,1.945309e+002
1.145610e+003,1.906586e+002
1.146574e+003,1.867178e+002
1.147538e+003,1.830404e+002
1.148503e+003,1.794500e+002
1.149467e+003,1.748129e+002
1.150431e+003,1.681420e+002
1.151395e+003,1.630767e+002
1.152359e+003,1.606165e+002
1.153324e+003,1.587778e+002
1.154288e+003,1.564967e+002
1.155252e+003,1.539828e+002
1.156216e+003,1.522955e+002
1.157181e+003,1.521183e+002
1.158145e+003,1.512192e+002
1.159109e+003,1.481774e+002
1.160073e+003,1.434717e+002
1.161038e+003,1.353575e+002
1.162002e+003,1.262125e+002
1.162966e+003,1.212228e+002
1.163930e+003,1.226560e+002
1.164895e+003,1.262214e+002
1.165859e+003,1.239227e+002
1.166823e+003,1.150179e+002
1.167787e+003,1.108402e+002
1.168751e+003,1.127667e+002
1.169716e+003,1.137047e+002
1.170680e+003,1.111771e+002
1.171644e+003,1.068429e+002
1.172608e+003,1.035333e+002
1.173573e+003,1.024868e+002
1.174537e+003,1.025588e+002
1.175501e+003,1.018560e+002
1.176465e+003,9.951892e+001
1.177430e+003,9.593909e+001
1.178394e+003,9.197546e+001
1.179358e+003,8.836292e+001
1.180322e+003,8.502222e+001
1.181286e+003,8.181274e+001
1.182251e+003,7.928467e+001
1.183215e+003,7.817078e+001
1.184179e+003,7.677991e+001
1.185143e+003,7.445874e+001
1.186108e+003,7.373987e+001
1.187072e+003,7.575696e+001
1.188036e+003,7.752100e+001
1.189000e+003,7.596802e+001
1.189965e+003,7.161230e+001
1.190929e+003,6.829651e+001
1.191893e+003,6.850439e+001
1.192857e+003,6.933142e+001
1.193822e+003,6.661682e+001
1.194786e+003,6.215015e+001
1.195750e+003,5.898767e+001
1.196714e+003,5.748462e+001
1.197678e+003,5.600281e+001
1.198643e+003,5.325781e+001
1.199607e+003,4.968555e+001
1.200571e+003,4.647815e+001
1.201535e+003,4.387219e+001
1.202500e+003,4.312781e+001
1.203464e+003,4.368494e+001
1.204428e+003,4.422461e+001
1.205392e+003,4.469238e+001
1.206357e+003,4.466187e+001
1.207321e+003,4.329810e+001
1.208285e+003,4.034802e+001
1.209249e+003,3.679956e+001
1.210214e+003,3.363147e+001
1.211178e+003,3.153772e+001
1.212142e+003,3.156580e+001
1.213106e+003,3.360205e+001
1.214070e+003,3.518555e+001
1.215035e+003,3.478918e+001
1.215999e+003,3.259644e+001
1.216963e+003,2.902808e+001
1.217927e+003,2.391724e+001
1.218892e+003,2.102087e+001
1.219856e+003,2.493787e+001
1.220820e+003,2.853271e+001
1.221784e+003,2.787146e+001
1.222749e+003,2.493152e+001
1.223713e+003,2.273657e+001
1.224677e+003,2.224414e+001
1.225641e+003,2.243103e+001
1.226605e+003,2.229980e+001
1.227570e+003,2.185889e+001
1.228534e+003,2.096814e+001
1.229498e+003,2.027258e+001
1.230462e+003,1.984851e+001
1.231427e+003,1.910852e+001
1.232391e+003,1.774414e+001
1.233355e+003,1.568909e+001
1.234319e+003,1.366467e+001
1.235284e+003,1.321606e+001
1.236248e+003,1.510571e+001
1.237212e+003,1.719165e+001
1.238176e+003,1.701208e+001
1.239141e+003,1.565576e+001
1.240105e+003,1.475513e+001
1.241069e+003,1.472290e+001
1.242033e+003,1.515710e+001
1.242997e+003,1.561719e+001
1.243962e+003,1.604846e+001
1.244926e+003,1.683228e+001
1.245890e+003,1.921411e+001
1.246854e+003,2.001318e+001
1.247819e+003,1.757996e+001
1.248783e+003,1.523315e+001
1.249747e+003,1.444788e+001
1.250711e+003,1.469983e+001
1.251676e+003,1.474438e+001
1.252640e+003,1.407043e+001
1.253604e+003,1.368164e+001
1.254568e+003,1.551050e+001
1.255532e+003,1.841345e+001
1.256497e+003,1.719763e+001
1.257461e+003,1.246472e+001
1.258425e+003,1.027075e+001
1.259389e+003,1.291479e+001
1.260354e+003,1.712500e+001
1.261318e+003,1.984949e+001
1.262282e+003,2.112976e+001
1.263246e+003,2.053442e+001
1.264211e+003,1.674390e+001
1.265175e+003,1.383154e+001
1.266139e+003,1.360095e+001
1.267103e+003,1.465735e+001
1.268068e+003,1.646716e+001
1.269032e+003,1.798230e+001
1.269996e+003,1.801709e+001
1.270960e+003,1.636853e+001
1.271924e+003,1.409485e+001
1.272889e+003,1.212390e+001
1.273853e+003,1.012524e+001
1.274817e+003,9.791138e+000
1.275781e+003,9.970093e+000
1.276746e+003,1.003174e+001
1.277710e+003,1.242041e+001
1.278674e+003,1.556360e+001
1.279638e+003,1.629907e+001
1.280603e+003,1.455859e+001
1.281567e+003,1.376392e+001
1.282531e+003,1.519043e+001
1.283495e+003,1.722595e+001
1.284459e+003,1.919238e+001
1.285424e+003,2.034619e+001
1.286388e+003,1.953101e+001
1.287352e+003,1.706348e+001
1.288316e+003,1.493359e+001
1.289281e+003,1.492786e+001
1.290245e+003,1.664929e+001
1.291209e+003,1.753711e+001
1.292173e+003,1.592859e+001
1.293138e+003,1.511621e+001
1.294102e+003,1.806042e+001
1.295066e+003,1.984717e+001
1.296030e+003,1.771130e+001
1.296995e+003,1.419287e+001
1.297959e+003,1.218140e+001
1.298923e+003,1.231714e+001
1.299887e+003,1.354114e+001
1.300851e+003,1.476965e+001
1.301816e+003,1.495764e+001
1.302780e+003,1.305249e+001
1.303744e+003,1.064453e+001
1.304708e+003,9.497070e+000
1.305673e+003,9.342285e+000
1.306637e+003,1.010217e+001
1.307601e+003,1.097620e+001
1.308565e+003,1.138550e+001
1.309530e+003,1.215076e+001
1.310494e+003,1.457703e+001
1.311458e+003,1.714294e+001
1.312422e+003,1.814856e+001
1.313386e+003,1.877356e+001
1.314351e+003,2.050061e+001
1.315315e+003,2.223108e+001
1.316279e+003,2.180408e+001
1.317243e+003,1.890527e+001
1.318208e+003,1.590027e+001
1.319172e+003,1.529028e+001
1.320136e+003,1.657227e+001
1.321100e+003,1.715674e+001
1.322065e+003,1.702869e+001
1.323029e+003,1.849536e+001
1.323993e+003,2.240771e+001
1.324957e+003,2.568018e+001
1.325922e+003,2.596350e+001
1.326886e+003,2.348584e+001
1.327850e+003,1.967090e+001
1.328814e+003,1.606812e+001
1.329778e+003,1.412012e+001
1.330743e+003,1.442383e+001
1.331707e+003,1.645776e+001
1.332671e+003,1.947510e+001
1.333635e+003,2.275720e+001
1.334600e+003,2.347852e+001
1.335564e+003,1.939612e+001
1.336528e+003,1.530994e+001
1.337492e+003,1.684155e+001
1.338457e+003,2.177673e+001
1.339421e+003,2.159753e+001
1.340385e+003,1.393604e+001
1.341349e+003,9.294922e+000
1.342313e+003,1.443640e+001
1.343278e+003,2.072302e+001
1.344242e+003,2.271448e+001
1.345206e+003,2.201941e+001
1.346170e+003,2.144165e+001
1.347135e+003,2.211536e+001
1.348099e+003,2.386865e+001
1.349063e+003,2.638989e+001
1.350027e+003,2.919275e+001
1.350992e+003,3.068994e+001
1.351956e+003,3.113208e+001
1.352920e+003,2.861780e+001
1.353884e+003,2.031213e+001
1.354849e+003,1.395630e+001
1.355813e+003,1.435535e+001
1.356777e+003,1.829126e+001
1.357741e+003,2.091370e+001
1.358705e+003,2.094727e+001
1.359670e+003,2.044275e+001
1.360634e+003,2.107251e+001
1.361598e+003,2.183044e+001
1.362562e+003,2.089453e+001
1.363527e+003,1.950830e+001
1.364491e+003,1.953003e+001
1.365455e+003,1.947571e+001
1.366419e+003,1.972937e+001
1.367384e+003,2.244373e+001
1.368348e+003,2.587390e+001
1.369312e+003,2.617773e+001
1.370276e+003,2.367102e+001
1.371240e+003,2.332483e+001
1.372205e+003,2.692456e+001
1.373169e+003,2.981946e+001
1.374133e+003,2.822192e+001
1.375097e+003,2.442615e+001
1.376062e+003,2.164929e+001
1.377026e+003,2.058777e+001
1.377990e+003,2.015491e+001
1.378954e+003,1.988062e+001
1.379919e+003,2.031653e+001
1.380883e+003,2.164734e+001
1.381847e+003,2.315356e+001
1.382811e+003,2.433972e+001
1.383776e+003,2.461182e+001
1.384740e+003,2.407495e+001
1.385704e+003,2.407886e+001
1.386668e+003,2.476794e+001
1.387632e+003,2.541699e+001
1.388597e+003,2.582825e+001
1.389561e+003,2.637109e+001
1.390525e+003,2.730542e+001
1.391489e+003,2.849390e+001
1.392454e+003,2.972815e+001
1.393418e+003,3.056909e+001
1.394382e+003,2.948376e+001
1.395346e+003,2.527649e+001
1.396311e+003,2.264795e+001
1.397275e+003,2.578406e+001
1.398239e+003,3.008057e+001
1.399203e+003,2.998096e+001
1.400167e+003,2.658081e+001
1.401132e+003,2.479431e+001
1.402096e+003,2.583215e+001
1.403060e+003,2.685620e+001
1.404024e+003,2.748022e+001
1.404989e+003,2.835840e+001
1.405953e+003,2.681116e+001
1.406917e+003,2.293896e+001
1.407881e+003,2.160339e+001
1.408846e+003,2.503418e+001
1.409810e+003,2.907129e+001
1.410774e+003,3.044958e+001
1.411738e+003,3.044238e+001
1.412703e+003,3.072913e+001
1.413667e+003,2.981531e+001
1.414631e+003,2.918884e+001
1.415595e+003,3.138855e+001
1.416559e+003,3.271729e+001
1.417524e+003,3.046887e+001
1.418488e+003,2.845288e+001
1.419452e+003,3.091589e+001
1.420416e+003,3.635583e+001
1.421381e+003,3.926025e+001
1.422345e+003,3.658606e+001
1.423309e+003,3.134961e+001
1.424273e+003,2.933228e+001
1.425238e+003,3.154382e+001
1.426202e+003,3.286682e+001
1.427166e+003,3.051257e+001
1.428130e+003,2.944348e+001
1.429094e+003,3.138843e+001
1.430059e+003,3.282141e+001
1.431023e+003,3.150549e+001
1.431987e+003,2.913855e+001
1.432951e+003,2.832935e+001
1.433916e+003,2.946045e+001
1.434880e+003,3.089063e+001
1.435844e+003,3.130518e+001
1.436808e+003,3.101868e+001
1.437773e+003,3.104492e+001
1.438737e+003,3.157104e+001
1.439701e+003,3.194934e+001
1.440665e+003,3.219995e+001
1.441630e+003,3.141675e+001
1.442594e+003,2.900024e+001
1.443558e+003,2.664905e+001
1.444522e+003,2.596973e+001
1.445486e+003,2.684595e+001
1.446451e+003,2.893860e+001
1.447415e+003,3.241748e+001
1.448379e+003,3.603064e+001
1.449343e+003,3.848718e+001
1.450308e+003,3.943201e+001
1.451272e+003,3.849341e+001
1.452236e+003,3.620789e+001
1.453200e+003,3.510718e+001
1.454165e+003,3.698596e+001
1.455129e+003,4.008118e+001
1.456093e+003,4.168872e+001
1.457057e+003,4.134827e+001
1.458021e+003,3.992053e+001
1.458986e+003,3.751611e+001
1.459950e+003,3.573376e+001
1.460914e+003,3.586877e+001
1.461878e+003,3.656152e+001
1.462843e+003,3.631580e+001
1.463807e+003,3.586938e+001
1.464771e+003,3.718640e+001
1.465735e+003,4.070898e+001
1.466700e+003,4.443823e+001
1.467664e+003,4.629224e+001
1.468628e+003,4.608679e+001
1.469592e+003,4.420605e+001
1.470557e+003,3.978955e+001
1.471521e+003,3.705920e+001
1.472485e+003,4.048108e+001
1.473449e+003,4.287573e+001
1.474413e+003,3.998474e+001
1.475378e+003,3.655847e+001
1.476342e+003,3.606445e+001
1.477306e+003,3.754626e+001
1.478270e+003,3.903137e+001
1.479235e+003,3.974841e+001
1.480199e+003,3.964575e+001
1.481163e+003,3.877832e+001
1.482127e+003,3.796057e+001
1.483092e+003,3.852686e+001
1.484056e+003,4.046155e+001
1.485020e+003,4.080164e+001
1.485984e+003,3.762744e+001
1.486948e+003,3.556531e+001
1.487913e+003,3.699011e+001
1.488877e+003,4.024060e+001
1.489841e+003,4.372363e+001
1.490805e+003,4.624939e+001
1.491770e+003,4.670435e+001
1.492734e+003,4.524365e+001
1.493698e+003,4.393701e+001
1.494662e+003,4.468408e+001
1.495627e+003,4.628967e+001
1.496591e+003,4.464307e+001
1.497555e+003,4.026563e+001
1.498519e+003,4.027942e+001
1.499484e+003,4.787720e+001
1.500448e+003,5.519238e+001
1.501412e+003,5.706799e+001
1.502376e+003,5.570483e+001
1.503340e+003,5.567493e+001
1.504305e+003,5.811194e+001
1.505269e+003,6.074048e+001
1.506233e+003,6.186133e+001
1.507197e+003,6.102856e+001
1.508162e+003,5.814490e+001
1.509126e+003,5.438843e+001
1.510090e+003,5.094080e+001
1.511054e+003,4.789917e+001
1.512019e+003,4.698779e+001
1.512983e+003,4.887012e+001
1.513947e+003,5.093433e+001
1.514911e+003,5.188074e+001
1.515875e+003,5.283472e+001
1.516840e+003,5.482581e+001
1.517804e+003,5.735815e+001
1.518768e+003,5.892371e+001
1.519732e+003,5.929407e+001
1.520697e+003,5.803674e+001
1.521661e+003,5.292480e+001
1.522625e+003,4.739380e+001
1.523589e+003,4.586401e+001
1.524554e+003,4.756128e+001
1.525518e+003,4.883362e+001
1.526482e+003,4.863025e+001
1.527446e+003,4.770020e+001
1.528411e+003,4.655994e+001
1.529375e+003,4.573315e+001
1.530339e+003,4.559119e+001
1.531303e+003,4.489197e+001
1.532267e+003,4.533972e+001
1.533232e+003,4.930200e+001
1.534196e+003,5.121802e+001
1.535160e+003,4.816162e+001
1.536124e+003,4.385388e+001
1.537089e+003,4.180884e+001
1.538053e+003,4.222803e+001
1.539017e+003,4.317920e+001
1.539981e+003,4.310608e+001
1.540946e+003,4.217383e+001
1.541910e+003,4.132092e+001
1.542874e+003,4.074341e+001
1.543838e+003,4.025659e+001
1.544802e+003,4.068787e+001
1.545767e+003,4.262000e+001
1.546731e+003,4.555237e+001
1.547695e+003,4.719397e+001
1.548659e+003,4.672375e+001
1.549624e+003,4.582678e+001
1.550588e+003,4.596509e+001
1.551552e+003,4.670740e+001
1.552516e+003,4.695471e+001
1.553481e+003,4.638171e+001
1.554445e+003,4.555078e+001
1.555409e+003,4.553088e+001
1.556373e+003,4.701611e+001
1.557338e+003,4.821606e+001
1.558302e+003,4.612598e+001
1.559266e+003,4.426367e+001
1.560230e+003,4.477417e+001
1.561194e+003,4.455750e+001
1.562159e+003,4.411523e+001
1.563123e+003,4.400537e+001
1.564087e+003,4.339966e+001
1.565051e+003,4.201611e+001
1.566016e+003,3.991394e+001
1.566980e+003,3.750098e+001
1.567944e+003,3.608203e+001
1.568908e+003,3.723914e+001
1.569873e+003,4.093079e+001
1.570837e+003,4.570544e+001
1.571801e+003,5.232751e+001
1.572765e+003,5.460828e+001
1.573729e+003,4.679663e+001
1.574694e+003,4.119653e+001
1.575658e+003,4.234998e+001
1.576622e+003,4.575464e+001
1.577586e+003,4.869031e+001
1.578551e+003,5.040015e+001
1.579515e+003,5.067261e+001
1.580479e+003,5.001709e+001
1.581443e+003,4.931763e+001
1.582408e+003,4.866028e+001
1.583372e+003,4.748779e+001
1.584336e+003,4.615137e+001
1.585300e+003,4.536279e+001
1.586265e+003,4.498108e+001
1.587229e+003,4.435779e+001
1.588193e+003,4.443884e+001
1.589157e+003,4.733496e+001
1.590121e+003,4.929004e+001
1.591086e+003,4.621838e+001
1.592050e+003,4.233459e+001
1.593014e+003,4.372778e+001
1.593978e+003,4.945410e+001
1.594943e+003,5.352319e+001
1.595907e+003,5.325403e+001
1.596871e+003,5.203259e+001
1.597835e+003,5.374109e+001
1.598800e+003,5.707324e+001
1.599764e+003,5.715515e+001
1.600728e+003,5.226233e+001
1.601692e+003,4.884814e+001
1.602656e+003,4.893323e+001
1.603621e+003,5.017126e+001
1.604585e+003,5.043042e+001
1.605549e+003,5.020630e+001
1.606513e+003,5.057117e+001
1.607478e+003,5.108008e+001
1.608442e+003,5.064575e+001
1.609406e+003,4.956299e+001
1.610370e+003,4.958545e+001
1.611335e+003,5.167407e+001
1.612299e+003,5.416565e+001
1.613263e+003,5.449902e+001
1.614227e+003,5.327502e+001
1.615192e+003,5.334180e+001
1.616156e+003,5.604431e+001
1.617120e+003,5.671057e+001
1.618084e+003,5.191467e+001
1.619048e+003,4.730652e+001
1.620013e+003,4.717883e+001
1.620977e+003,5.002966e+001
1.621941e+003,5.350977e+001
1.622905e+003,5.611401e+001
1.623870e+003,5.600000e+001
1.624834e+003,5.259949e+001
1.625798e+003,4.936182e+001
1.626762e+003,5.104529e+001
1.627727e+003,5.638953e+001
1.628691e+003,5.752588e+001
1.629655e+003,5.167065e+001
1.630619e+003,4.835217e+001
1.631583e+003,4.818518e+001
1.632548e+003,4.961414e+001
1.633512e+003,5.337964e+001
1.634476e+003,5.687732e+001
1.635440e+003,5.722290e+001
1.636405e+003,5.477844e+001
1.637369e+003,5.193201e+001
1.638333e+003,5.035559e+001
1.639297e+003,5.027258e+001
1.640262e+003,5.113977e+001
1.641226e+003,5.193347e+001
1.642190e+003,5.084460e+001
1.643154e+003,4.650610e+001
1.644119e+003,4.444873e+001
1.645083e+003,4.926050e+001
1.646047e+003,5.248523e+001
1.647011e+003,5.079980e+001
1.647975e+003,4.776025e+001
1.648940e+003,4.626501e+001
1.649904e+003,4.647974e+001
1.650868e+003,4.777625e+001
1.651832e+003,4.930884e+001
1.652797e+003,4.969177e+001
1.653761e+003,4.828223e+001
1.654725e+003,4.678235e+001
1.655689e+003,4.766895e+001
1.656654e+003,5.042944e+001
1.657618e+003,5.192712e+001
1.658582e+003,5.177734e+001
1.659546e+003,5.090222e+001
1.660510e+003,4.896692e+001
1.661475e+003,4.735730e+001
1.662439e+003,4.653650e+001
1.663403e+003,4.661511e+001
1.664367e+003,4.779980e+001
1.665332e+003,4.888269e+001
1.666296e+003,4.796362e+001
1.667260e+003,4.537451e+001
1.668224e+003,4.399585e+001
1.669189e+003,4.598657e+001
1.670153e+003,5.006824e+001
1.671117e+003,5.318652e+001
1.672081e+003,5.422998e+001
1.673046e+003,5.344946e+001
1.674010e+003,5.109912e+001
1.674974e+003,5.070996e+001
1.675938e+003,5.544702e+001
1.676902e+003,5.842883e+001
1.677867e+003,5.501917e+001
1.678831e+003,4.999426e+001
1.679795e+003,4.806665e+001
1.680759e+003,4.904761e+001
1.681724e+003,5.088940e+001
1.682688e+003,5.259009e+001
1.683652e+003,5.314124e+001
1.684616e+003,5.106909e+001
1.685581e+003,4.852917e+001
1.686545e+003,5.156250e+001
1.687509e+003,5.985632e+001
1.688473e+003,6.281946e+001
1.689438e+003,5.849109e+001
1.690402e+003,5.479077e+001
1.691366e+003,5.451563e+001
1.692330e+003,5.510754e+001
1.693294e+003,5.524780e+001
1.694259e+003,5.456140e+001
1.695223e+003,5.187842e+001
1.696187e+003,4.865845e+001
1.697151e+003,4.898877e+001
1.698116e+003,5.363916e+001
1.699080e+003,5.812756e+001
1.700044e+003,5.999524e+001
1.701008e+003,6.016235e+001
1.701973e+003,5.897034e+001
1.702937e+003,5.735095e+001
1.703901e+003,5.826697e+001
1.704865e+003,6.109778e+001
1.705829e+003,6.229700e+001
1.706794e+003,6.140356e+001
1.707758e+003,6.033984e+001
1.708722e+003,5.922766e+001
1.709686e+003,5.907251e+001
1.710651e+003,6.284583e+001
1.711615e+003,6.896277e+001
1.712579e+003,7.007397e+001
1.713543e+003,6.417444e+001
1.714508e+003,5.862292e+001
1.715472e+003,5.688049e+001
1.716436e+003,5.783167e+001
1.717400e+003,6.042834e+001
1.718365e+003,6.301575e+001
1.719329e+003,6.396399e+001
1.720293e+003,6.372729e+001
1.721257e+003,6.253137e+001
1.722221e+003,6.000549e+001
1.723186e+003,5.749585e+001
1.724150e+003,5.630676e+001
1.725114e+003,5.689465e+001
1.726078e+003,6.076099e+001
1.727043e+003,6.796936e+001
1.728007e+003,7.134436e+001
1.728971e+003,6.844629e+001
1.729935e+003,6.580591e+001
1.730900e+003,6.531384e+001
1.731864e+003,6.576587e+001
1.732828e+003,6.727954e+001
1.733792e+003,6.867749e+001
1.734756e+003,6.688770e+001
1.735721e+003,6.292346e+001
1.736685e+003,6.235706e+001
1.737649e+003,6.739868e+001
1.738613e+003,7.400061e+001
1.739578e+003,7.848047e+001
1.740542e+003,8.100769e+001
1.741506e+003,7.962756e+001
1.742470e+003,7.219275e+001
1.743435e+003,6.683264e+001
1.744399e+003,6.590918e+001
1.745363e+003,6.550806e+001
1.746327e+003,6.520642e+001
1.747292e+003,6.446558e+001
1.748256e+003,6.212036e+001
1.749220e+003,5.969312e+001
1.750184e+003,5.922363e+001
1.751148e+003,6.040942e+001
1.752113e+003,6.191077e+001
1.753077e+003,6.306824e+001
1.754041e+003,6.317261e+001
1.755005e+003,6.150171e+001
1.755970e+003,5.955347e+001
1.756934e+003,6.034888e+001
1.757898e+003,6.331506e+001
1.758862e+003,6.385132e+001
1.759827e+003,6.082483e+001
1.760791e+003,5.971118e+001
1.761755e+003,6.330713e+001
1.762719e+003,6.676257e+001
1.763683e+003,6.701038e+001
1.764648e+003,6.564075e+001
1.765612e+003,6.458435e+001
1.766576e+003,6.494958e+001
1.767540e+003,6.640808e+001
1.768505e+003,6.715991e+001
1.769469e+003,6.691003e+001
1.770433e+003,6.632458e+001
1.771397e+003,6.509717e+001
1.772362e+003,6.407446e+001
1.773326e+003,6.418982e+001
1.774290e+003,6.357385e+001
1.775254e+003,6.132434e+001
1.776219e+003,6.128967e+001
1.777183e+003,6.524744e+001
1.778147e+003,6.733386e+001
1.779111e+003,6.272070e+001
1.780075e+003,5.586987e+001
1.781040e+003,5.391626e+001
1.782004e+003,5.646692e+001
1.782968e+003,5.931531e+001
1.783932e+003,6.312012e+001
1.784897e+003,6.536121e+001
1.785861e+003,6.518738e+001
1.786825e+003,6.377295e+001
1.787789e+003,6.069971e+001
1.788754e+003,5.797375e+001
1.789718e+003,5.759680e+001
1.790682e+003,5.843701e+001
1.791646e+003,5.859338e+001
1.792610e+003,5.769116e+001
1.793575e+003,5.588806e+001
1.794539e+003,5.341492e+001
1.795503e+003,5.184009e+001
1.796467e+003,5.326538e+001
1.797432e+003,5.703442e+001
1.798396e+003,6.048010e+001
1.799360e+003,6.323315e+001
1.800324e+003,6.473755e+001
1.801289e+003,6.551440e+001
1.802253e+003,6.447888e+001
1.803217e+003,6.070886e+001
1.804181e+003,5.779529e+001
1.805146e+003,5.702295e+001
1.806110e+003,5.694812e+001
1.807074e+003,5.599011e+001
1.808038e+003,5.452271e+001
1.809002e+003,5.448987e+001
1.809967e+003,5.665344e+001
1.810931e+003,5.840222e+001
1.811895e+003,5.719373e+001
1.812859e+003,5.544421e+001
1.813824e+003,5.655432e+001
1.814788e+003,5.936597e+001
1.815752e+003,6.089978e+001
1.816716e+003,6.054358e+001
1.817681e+003,5.845923e+001
1.818645e+003,5.502173e+001
1.819609e+003,5.221423e+001
1.820573e+003,5.127893e+001
1.821537e+003,5.179370e+001
1.822502e+003,5.308679e+001
1.823466e+003,5.451196e+001
1.824430e+003,5.438611e+001
1.825394e+003,5.150574e+001
1.826359e+003,4.993225e+001
1.827323e+003,5.327637e+001
1.828287e+003,5.743420e+001
1.829251e+003,5.946143e+001
1.830216e+003,6.010522e+001
1.831180e+003,6.024976e+001
1.832144e+003,5.951807e+001
1.833108e+003,5.874158e+001
1.834073e+003,5.828503e+001
1.835037e+003,5.502026e+001
1.836001e+003,4.742542e+001
1.836965e+003,4.237170e+001
1.837929e+003,4.808655e+001
1.838894e+003,5.955310e+001
1.839858e+003,6.418066e+001
1.840822e+003,6.182141e+001
1.841786e+003,5.911829e+001
1.842751e+003,5.701318e+001
1.843715e+003,5.587463e+001
1.844679e+003,5.549756e+001
1.845643e+003,5.654041e+001
1.846608e+003,5.879126e+001
1.847572e+003,6.000208e+001
1.848536e+003,5.994629e+001
1.849500e+003,5.970605e+001
1.850464e+003,5.893445e+001
1.851429e+003,5.742566e+001
1.852393e+003,5.756519e+001
1.853357e+003,6.024414e+001
1.854321e+003,6.148645e+001
1.855286e+003,5.968030e+001
1.856250e+003,5.718701e+001
1.857214e+003,5.594507e+001
1.858178e+003,5.544031e+001
1.859143e+003,5.382202e+001
1.860107e+003,5.138538e+001
1.861071e+003,5.077222e+001
1.862035e+003,5.278052e+001
1.863000e+003,5.564282e+001
1.863964e+003,5.819409e+001
1.864928e+003,6.008118e+001
1.865892e+003,6.008069e+001
1.866856e+003,5.881482e+001
1.867821e+003,5.867102e+001
1.868785e+003,5.859302e+001
1.869749e+003,5.820117e+001
1.870713e+003,5.791064e+001
1.871678e+003,5.891687e+001
1.872642e+003,6.382251e+001
1.873606e+003,6.775232e+001
1.874570e+003,6.507471e+001
1.875535e+003,5.857642e+001
1.876499e+003,5.376855e+001
1.877463e+003,5.218701e+001
1.878427e+003,5.342371e+001
1.879391e+003,5.744458e+001
1.880356e+003,6.092505e+001
1.881320e+003,6.104565e+001
1.882284e+003,5.934167e+001
1.883248e+003,5.854895e+001
1.884213e+003,5.838635e+001
1.885177e+003,5.591406e+001
1.886141e+003,5.143799e+001
1.887105e+003,4.958643e+001
1.888070e+003,5.157813e+001
1.889034e+003,5.338367e+001
1.889998e+003,5.258521e+001
1.890962e+003,5.193262e+001
1.891927e+003,5.454175e+001
1.892891e+003,5.861792e+001
1.893855e+003,5.974377e+001
1.894819e+003,5.790613e+001
1.895783e+003,5.450525e+001
1.896748e+003,4.789490e+001
1.897712e+003,4.555859e+001
1.898676e+003,5.262341e+001
1.899640e+003,5.813904e+001
1.900605e+003,5.453040e+001
1.901569e+003,4.847986e+001
1.902533e+003,4.704773e+001
1.903497e+003,4.900720e+001
1.904462e+003,5.063098e+001
1.905426e+003,5.145874e+001
1.906390e+003,5.240454e+001
1.907354e+003,5.454150e+001
1.908318e+003,5.683020e+001
1.909283e+003,5.638257e+001
1.910247e+003,5.442810e+001
1.911211e+003,5.409692e+001
1.912175e+003,5.505054e+001
1.913140e+003,5.602466e+001
1.914104e+003,5.692566e+001
1.915068e+003,5.646338e+001
1.916032e+003,5.397998e+001
1.916997e+003,5.262390e+001
1.917961e+003,5.535791e+001
1.918925e+003,5.974878e+001
1.919889e+003,6.059827e+001
1.920854e+003,5.776538e+001
1.921818e+003,5.606995e+001
1.922782e+003,5.638196e+001
1.923746e+003,5.588440e+001
1.924710e+003,5.422156e+001
1.925675e+003,5.351904e+001
1.926639e+003,5.472705e+001
1.927603e+003,5.566760e+001
1.928567e+003,5.522070e+001
1.929532e+003,5.396509e+001
1.930496e+003,5.190332e+001
1.931460e+003,5.008875e+001
1.932424e+003,5.165588e+001
1.933389e+003,5.715247e+001
1.934353e+003,6.030603e+001
1.935317e+003,5.769373e+001
1.936281e+003,5.340295e+001
1.937245e+003,4.818848e+001
1.938210e+003,4.452026e+001
1.939174e+003,4.664282e+001
1.940138e+003,5.151843e+001
1.941102e+003,5.328284e+001
1.942067e+003,5.211499e+001
1.943031e+003,5.184900e+001
1.943995e+003,5.334521e+001
1.944959e+003,5.423889e+001
1.945924e+003,5.330432e+001
1.946888e+003,5.141956e+001
1.947852e+003,4.841125e+001
1.948816e+003,4.446521e+001
1.949781e+003,4.369116e+001
1.950745e+003,4.579333e+001
1.951709e+003,4.760889e+001
1.952673e+003,5.058472e+001
1.953637e+003,5.226807e+001
1.954602e+003,5.005530e+001
1.955566e+003,4.767688e+001
1.956530e+003,4.850171e+001
1.957494e+003,5.115918e+001
1.958459e+003,5.282385e+001
1.959423e+003,5.290137e+001
1.960387e+003,5.257751e+001
1.961351e+003,5.245386e+001
1.962316e+003,5.201794e+001
1.963280e+003,5.087671e+001
1.964244e+003,5.006702e+001
1.965208e+003,5.026660e+001
1.966172e+003,5.099817e+001
1.967137e+003,5.210486e+001
1.968101e+003,5.248230e+001
1.969065e+003,5.021741e+001
1.970029e+003,4.613477e+001
1.970994e+003,4.356860e+001
1.971958e+003,4.448303e+001
1.972922e+003,4.767261e+001
1.973886e+003,5.081323e+001
1.974851e+003,5.231531e+001
1.975815e+003,5.174976e+001
1.976779e+003,5.052856e+001
1.977743e+003,5.035791e+001
1.978708e+003,5.102759e+001
1.979672e+003,5.091614e+001
1.980636e+003,4.940845e+001
1.981600e+003,4.851270e+001
1.982564e+003,4.942554e+001
1.983529e+003,4.914612e+001
1.984493e+003,4.539746e+001
1.985457e+003,4.131604e+001
1.986421e+003,4.066846e+001
1.987386e+003,4.263562e+001
1.988350e+003,4.478613e+001
1.989314e+003,4.626929e+001
1.990278e+003,4.721875e+001
1.991243e+003,4.901782e+001
1.992207e+003,4.864807e+001
1.993171e+003,4.530164e+001
1.994135e+003,4.232837e+001
1.995099e+003,3.993726e+001
1.996064e+003,3.919092e+001
1.997028e+003,4.132971e+001
1.997992e+003,4.482629e+001
1.998956e+003,4.798975e+001
1.999921e+003,5.053772e+001
2.000885e+003,5.006970e+001
2.001849e+003,4.336670e+001
2.002813e+003,3.994104e+001
2.003778e+003,4.807251e+001
2.004742e+003,5.517419e+001
2.005706e+003,5.382898e+001
2.006670e+003,4.934143e+001
2.007635e+003,4.462451e+001
2.008599e+003,4.141931e+001
2.009563e+003,4.230884e+001
2.010527e+003,4.603625e+001
2.011491e+003,4.841772e+001
2.012456e+003,4.799207e+001
2.013420e+003,4.720886e+001
2.014384e+003,4.827576e+001
2.015348e+003,4.961682e+001
2.016313e+003,4.847339e+001
2.017277e+003,4.606982e+001
2.018241e+003,4.474817e+001
2.019205e+003,4.468262e+001
2.020170e+003,4.656006e+001
2.021134e+003,4.959375e+001
2.022098e+003,5.022803e+001
2.023062e+003,4.798816e+001
2.024026e+003,4.701892e+001
2.024991e+003,4.967383e+001
2.025955e+003,5.224475e+001
2.026919e+003,4.987170e+001
2.027883e+003,4.428699e+001
2.028848e+003,4.188928e+001
2.029812e+003,4.363879e+001
2.030776e+003,4.557825e+001
2.031740e+003,4.603772e+001
2.032705e+003,4.567383e+001
2.033669e+003,4.618433e+001
2.034633e+003,4.638721e+001
2.035597e+003,4.534839e+001
2.036562e+003,4.537793e+001
2.037526e+003,4.804224e+001
2.038490e+003,5.151001e+001
2.039454e+003,5.319128e+001
2.040418e+003,5.274963e+001
2.041383e+003,5.168921e+001
2.042347e+003,5.067542e+001
2.043311e+003,4.969580e+001
2.044275e+003,4.895044e+001
2.045240e+003,4.826025e+001
2.046204e+003,4.686340e+001
2.047168e+003,4.514172e+001
2.048132e+003,4.316199e+001
2.049097e+003,4.212415e+001
2.050061e+003,4.294458e+001
2.051025e+003,4.446643e+001
2.051989e+003,4.544849e+001
2.052954e+003,4.651611e+001
2.053918e+003,4.847498e+001
2.054882e+003,5.175098e+001
2.055846e+003,5.284351e+001
2.056811e+003,4.706226e+001
2.057775e+003,4.078943e+001
2.058739e+003,4.053906e+001
2.059703e+003,4.317200e+001
2.060667e+003,4.427502e+001
2.061632e+003,4.377612e+001
2.062596e+003,4.332043e+001
2.063560e+003,4.303479e+001
2.064524e+003,4.132385e+001
2.065489e+003,3.833081e+001
2.066453e+003,3.781177e+001
2.067417e+003,4.190918e+001
2.068381e+003,4.639893e+001
2.069345e+003,4.689941e+001
2.070310e+003,4.489050e+001
2.071274e+003,4.435498e+001
2.072238e+003,4.580920e+001
2.073202e+003,4.473669e+001
2.074167e+003,4.037048e+001
2.075131e+003,3.913391e+001
2.076095e+003,4.281152e+001
2.077059e+003,4.540442e+001
2.078023e+003,4.367920e+001
2.078988e+003,4.164282e+001
2.079952e+003,4.314832e+001
2.080916e+003,4.536609e+001
2.081880e+003,4.342810e+001
2.082845e+003,3.889197e+001
2.083809e+003,3.850818e+001
2.084773e+003,4.211426e+001
2.085737e+003,4.181226e+001
2.086702e+003,3.570715e+001
2.087666e+003,3.217810e+001
2.088630e+003,3.521106e+001
2.089594e+003,3.917505e+001
2.090559e+003,3.925171e+001
2.091523e+003,3.689709e+001
2.092487e+003,3.514331e+001
2.093451e+003,3.417053e+001
2.094416e+003,3.275085e+001
2.095380e+003,2.983313e+001
2.096344e+003,3.049182e+001
2.097308e+003,3.838440e+001
2.098272e+003,4.279993e+001
2.099237e+003,3.942041e+001
2.100201e+003,3.595386e+001
2.101165e+003,3.573535e+001
2.102129e+003,3.637048e+001
2.103094e+003,3.596301e+001
2.104058e+003,3.532214e+001
2.105022e+003,3.636218e+001
2.105986e+003,3.907043e+001
2.106951e+003,4.005933e+001
2.107915e+003,3.767346e+001
2.108879e+003,3.530481e+001
2.109843e+003,3.319373e+001
2.110808e+003,3.180859e+001
2.111772e+003,3.234033e+001
2.112736e+003,3.348743e+001
2.113700e+003,3.373438e+001
2.114665e+003,3.328455e+001
2.115629e+003,3.350500e+001
2.116593e+003,3.365955e+001
2.117557e+003,3.199146e+001
2.118521e+003,2.943591e+001
2.119486e+003,2.845361e+001
2.120450e+003,2.892053e+001
2.121414e+003,3.035657e+001
2.122378e+003,3.270776e+001
2.123343e+003,3.350464e+001
2.124307e+003,3.299963e+001
2.125271e+003,3.282520e+001
2.126235e+003,3.322546e+001
2.127199e+003,3.402075e+001
2.128164e+003,3.481067e+001
2.129128e+003,3.491797e+001
2.130092e+003,3.436414e+001
2.131056e+003,3.368945e+001
2.132021e+003,3.234412e+001
2.132985e+003,2.903552e+001
2.133949e+003,2.705798e+001
2.134913e+003,3.108533e+001
2.135877e+003,3.398291e+001
2.136842e+003,3.071863e+001
2.137806e+003,2.788599e+001
2.138770e+003,3.030212e+001
2.139734e+003,3.414990e+001
2.140699e+003,3.455261e+001
2.141663e+003,3.160498e+001
2.142627e+003,2.843579e+001
2.143591e+003,2.693372e+001
2.144556e+003,2.639319e+001
2.145520e+003,2.574084e+001
2.146484e+003,2.645752e+001
2.147448e+003,3.094519e+001
2.148413e+003,3.439954e+001
2.149377e+003,3.117334e+001
2.150341e+003,2.691370e+001
2.151305e+003,2.982983e+001
2.152270e+003,3.610059e+001
2.153234e+003,3.718726e+001
2.154198e+003,3.308118e+001
2.155162e+003,2.876306e+001
2.156126e+003,2.636255e+001
2.157091e+003,2.562500e+001
2.158055e+003,2.652588e+001
2.159019e+003,2.833948e+001
2.159983e+003,2.928088e+001
2.160948e+003,2.947546e+001
2.161912e+003,3.112598e+001
2.162876e+003,3.271875e+001
2.163840e+003,3.056836e+001
2.164805e+003,2.629163e+001
2.165769e+003,2.369678e+001
2.166733e+003,2.303223e+001
2.167697e+003,2.322583e+001
2.168662e+003,2.391052e+001
2.169626e+003,2.386206e+001
2.170590e+003,2.164575e+001
2.171554e+003,1.869067e+001
2.172519e+003,1.755981e+001
2.173483e+003,1.822473e+001
2.174447e+003,2.112134e+001
2.175411e+003,2.454480e+001
2.176375e+003,2.328284e+001
2.177340e+003,1.966003e+001
2.178304e+003,1.987329e+001
2.179268e+003,2.296497e+001
2.180232e+003,2.559143e+001
2.181197e+003,2.693604e+001
2.182161e+003,2.692151e+001
2.183125e+003,2.591833e+001
2.184089e+003,2.454272e+001
2.185053e+003,2.253455e+001
2.186018e+003,2.061096e+001
2.186982e+003,2.096570e+001
2.187946e+003,2.230762e+001
2.188910e+003,2.179871e+001
2.189875e+003,1.986304e+001
2.190839e+003,1.714026e+001
2.191803e+003,1.483545e+001
2.192767e+003,1.553052e+001
2.193731e+003,1.861426e+001
2.194696e+003,2.096167e+001
2.195660e+003,2.138025e+001
2.196624e+003,2.041309e+001
2.197588e+003,1.830908e+001
2.198553e+003,1.585510e+001
2.199517e+003,1.422607e+001
2.200481e+003,1.316052e+001
2.201445e+003,1.137927e+001
2.202410e+003,1.029675e+001
2.203374e+003,1.421521e+001
2.204338e+003,2.167017e+001
2.205302e+003,2.689404e+001
2.206267e+003,2.814734e+001
2.207231e+003,2.610950e+001
2.208195e+003,2.176892e+001
2.209159e+003,1.728748e+001
2.210124e+003,1.483582e+001
2.211088e+003,1.457214e+001
2.212052e+003,1.557544e+001
2.213016e+003,1.624524e+001
2.213980e+003,1.406812e+001
2.214945e+003,1.095374e+001
2.215909e+003,1.323865e+001
2.216873e+003,1.971289e+001
2.217837e+003,2.268677e+001
2.218802e+003,2.110059e+001
2.219766e+003,1.976184e+001
2.220730e+003,1.993433e+001
2.221694e+003,1.796472e+001
2.222659e+003,1.222253e+001
2.223623e+003,6.746094e+000
2.224587e+003,5.662231e+000
2.225551e+003,7.879150e+000
2.226516e+003,1.052368e+001
2.227480e+003,1.221143e+001
2.228444e+003,1.411926e+001
2.229408e+003,1.639697e+001
2.230373e+003,1.698560e+001
2.231337e+003,1.593457e+001
2.232301e+003,1.292053e+001
2.233265e+003,8.584473e+000
2.234229e+003,8.673706e+000
2.235194e+003,1.616785e+001
2.236158e+003,2.349280e+001
2.237122e+003,2.340454e+001
2.238086e+003,1.914734e+001
2.239051e+003,1.491406e+001
2.240015e+003,1.118628e+001
2.240979e+003,7.306152e+000
2.241943e+003,4.279907e+000
2.242907e+003,3.600220e+000
2.243872e+003,5.096069e+000
2.244836e+003,9.363037e+000
2.245800e+003,1.470850e+001
2.246764e+003,1.586987e+001
2.247729e+003,1.160632e+001
2.248693e+003,7.891724e+000
2.249657e+003,8.968262e+000
2.250621e+003,1.091187e+001
2.251585e+003,9.443848e+000
2.252550e+003,7.737305e+000
2.253514e+003,8.568115e+000
2.254478e+003,1.029565e+001
2.255442e+003,1.278491e+001
2.256407e+003,1.506067e+001
2.257371e+003,1.406689e+001
2.258335e+003,1.084973e+001
2.259299e+003,9.530029e+000
2.260264e+003,1.048962e+001
2.261228e+003,1.071240e+001
2.262192e+003,9.705444e+000
2.263156e+003,9.788940e+000
2.264121e+003,1.267639e+001
2.265085e+003,1.441870e+001
2.266049e+003,1.166150e+001
2.267013e+003,8.144043e+000
2.267978e+003,6.493896e+000
2.268942e+003,6.789673e+000
2.269906e+003,9.903564e+000
2.270870e+003,1.345251e+001
2.271834e+003,1.271667e+001
2.272799e+003,8.110352e+000
2.273763e+003,5.725952e+000
2.274727e+003,8.225464e+000
2.275691e+003,1.064905e+001
2.276656e+003,1.026123e+001
2.277620e+003,9.775513e+000
2.278584e+003,9.364258e+000
2.279548e+003,9.172241e+000
2.280513e+003,1.035742e+001
2.281477e+003,1.121667e+001
2.282441e+003,9.631592e+000
2.283405e+003,7.297607e+000
2.284370e+003,6.740845e+000
2.285334e+003,8.173340e+000
2.286298e+003,1.046301e+001
2.287262e+003,1.268665e+001
2.288227e+003,1.375317e+001
2.289191e+003,1.403833e+001
2.290155e+003,1.389832e+001
2.291119e+003,1.448914e+001
2.292083e+003,1.327063e+001
2.293048e+003,7.072266e+000
2.294012e+003,1.832886e+000
2.294976e+003,0.000000e+000
2.295940e+003,1.244385e+000
2.296905e+003,6.510620e+000
2.297869e+003,1.204639e+001
2.298833e+003,1.205823e+001
2.299797e+003,8.067871e+000
2.300761e+003,6.341797e+000
2.301726e+003,7.255249e+000
2.302690e+003,9.806519e+000
2.303654e+003,1.432471e+001
2.304618e+003,1.678625e+001
2.305583e+003,1.659399e+001
2.306547e+003,1.597815e+001
2.307511e+003,1.554858e+001
2.308475e+003,1.600732e+001
2.309439e+003,1.786011e+001
2.310404e+003,1.928516e+001
2.311368e+003,1.803857e+001
2.312332e+003,1.558752e+001
2.313296e+003,1.602478e+001
2.314261e+003,1.915247e+001
2.315225e+003,2.075610e+001
2.316189e+003,2.072766e+001
2.317153e+003,2.140710e+001
2.318118e+003,2.240698e+001
2.319082e+003,2.154529e+001
2.320046e+003,1.913843e+001
2.321010e+003,1.748730e+001
2.321975e+003,1.767175e+001
2.322939e+003,2.041943e+001
2.323903e+003,2.541772e+001
2.324867e+003,2.923376e+001
2.325832e+003,2.861401e+001
2.326796e+003,2.608203e+001
2.327760e+003,2.580310e+001
2.328724e+003,2.778857e+001
2.329688e+003,3.145251e+001
2.330653e+003,3.424194e+001
2.331617e+003,3.154089e+001
2.332581e+003,2.588147e+001
2.333545e+003,2.391699e+001
2.334510e+003,2.607996e+001
2.335474e+003,2.765369e+001
2.336438e+003,2.701306e+001
2.337402e+003,2.808606e+001
2.338367e+003,3.387463e+001
2.339331e+003,3.884692e+001
2.340295e+003,3.816614e+001
2.341259e+003,3.617505e+001
2.342224e+003,3.562610e+001
2.343188e+003,3.605798e+001
2.344152e+003,3.679797e+001
2.345116e+003,3.823926e+001
2.346081e+003,4.061316e+001
2.347045e+003,4.338525e+001
2.348009e+003,4.678833e+001
2.348973e+003,5.036084e+001
2.349938e+003,5.223865e+001
2.350902e+003,5.195557e+001
2.351866e+003,5.018152e+001
2.352830e+003,4.654102e+001
2.353794e+003,4.514966e+001
2.354759e+003,4.452588e+001
2.355723e+003,4.665271e+001
2.356687e+003,5.433508e+001
2.357651e+003,6.154895e+001
2.358615e+003,6.590942e+001
2.359580e+003,6.747192e+001
2.360544e+003,6.553967e+001
2.361508e+003,6.213000e+001
2.362472e+003,6.120850e+001
2.363437e+003,6.310608e+001
2.364401e+003,6.491650e+001
2.365365e+003,6.547351e+001
2.366329e+003,6.803394e+001
2.367293e+003,7.272461e+001
2.368258e+003,7.492883e+001
2.369222e+003,7.460999e+001
2.370186e+003,7.649158e+001
2.371150e+003,8.179822e+001
2.372115e+003,8.629626e+001
2.373079e+003,8.727014e+001
2.374043e+003,8.828040e+001
2.375007e+003,9.364307e+001
2.375972e+003,9.933667e+001
2.376936e+003,9.704675e+001
2.377900e+003,9.186365e+001
2.378864e+003,9.521716e+001
2.379829e+003,1.019542e+002
2.380793e+003,1.021827e+002
2.381757e+003,9.880627e+001
2.382721e+003,9.899133e+001
2.383686e+003,1.023119e+002
2.384650e+003,1.045559e+002
2.385614e+003,1.048151e+002
2.386578e+003,1.041895e+002
2.387542e+003,1.029148e+002
2.388507e+003,1.027842e+002
2.389471e+003,1.059478e+002
2.390435e+003,1.084999e+002
2.391399e+003,1.075000e+002
2.392364e+003,1.071620e+002
2.393328e+003,1.104126e+002
2.394292e+003,1.133190e+002
2.395256e+003,1.132927e+002
2.396221e+003,1.113384e+002
2.397185e+003,1.077593e+002
2.398149e+003,1.045608e+002
2.399113e+003,1.051238e+002
2.400078e+003,1.086160e+002
2.401042e+003,1.109004e+002
2.402006e+003,1.119746e+002
2.402970e+003,1.125978e+002
2.403935e+003,1.124050e+002
2.404899e+003,1.120798e+002
2.405863e+003,1.118575e+002
2.406827e+003,1.118065e+002
2.407792e+003,1.121848e+002
2.408756e+003,1.141804e+002
2.409720e+003,1.175920e+002
2.410684e+003,1.194840e+002
2.411648e+003,1.180298e+002
2.412613e+003,1.169282e+002
2.413577e+003,1.222174e+002
2.414541e+003,1.310345e+002
2.415505e+003,1.339175e+002
2.416469e+003,1.315747e+002
2.417434e+003,1.288821e+002
2.418398e+003,1.267037e+002
2.419362e+003,1.246118e+002
2.420326e+003,1.229680e+002
2.421291e+003,1.224922e+002
2.422255e+003,1.225544e+002
2.423219e+003,1.234762e+002
2.424183e+003,1.263884e+002
2.425147e+003,1.292910e+002
2.426112e+003,1.303552e+002
2.427076e+003,1.308472e+002
2.428040e+003,1.298231e+002
2.429004e+003,1.288569e+002
2.429969e+003,1.306931e+002
2.430933e+003,1.321680e+002
2.431897e+003,1.308672e+002
2.432861e+003,1.283933e+002
2.433826e+003,1.243302e+002
2.434790e+003,1.213848e+002
2.435754e+003,1.259406e+002
2.436718e+003,1.344115e+002
2.437683e+003,1.337828e+002
2.438647e+003,1.236501e+002
2.439611e+003,1.195040e+002
2.440575e+003,1.227424e+002
2.441540e+003,1.257281e+002
2.442504e+003,1.283765e+002
2.443468e+003,1.272263e+002
2.444432e+003,1.217235e+002
2.445396e+003,1.168391e+002
2.446361e+003,1.139711e+002
2.447325e+003,1.120648e+002
2.448289e+003,1.108469e+002
2.449253e+003,1.111423e+002
2.450218e+003,1.144053e+002
2.451182e+003,1.183197e+002
2.452146e+003,1.174670e+002
2.453110e+003,1.129734e+002
2.454075e+003,1.073677e+002
2.455039e+003,1.026075e+002
2.456003e+003,1.023678e+002
2.456967e+003,1.044431e+002
2.457932e+003,1.028552e+002
2.458896e+003,9.871924e+001
2.459860e+003,9.807397e+001
2.460824e+003,1.006558e+002
2.461789e+003,9.986499e+001
2.462753e+003,9.427283e+001
2.463717e+003,9.170752e+001
2.464681e+003,9.538782e+001
2.465646e+003,9.889343e+001
2.466610e+003,1.015538e+002
2.467574e+003,1.018491e+002
2.468538e+003,9.984607e+001
2.469502e+003,9.765320e+001
2.470467e+003,9.573230e+001
2.471431e+003,9.256433e+001
2.472395e+003,8.614490e+001
2.473359e+003,8.110205e+001
2.474323e+003,8.553723e+001
2.475288e+003,9.546643e+001
2.476252e+003,9.694043e+001
2.477216e+003,9.150452e+001
2.478180e+003,8.746875e+001
2.479145e+003,8.437952e+001
2.480109e+003,8.282788e+001
2.481073e+003,8.284924e+001
2.482037e+003,8.334521e+001
2.483001e+003,8.379492e+001
2.483966e+003,8.270569e+001
2.484930e+003,7.956445e+001
2.485894e+003,7.696875e+001
2.486858e+003,7.644653e+001
2.487823e+003,7.563831e+001
2.488787e+003,7.336560e+001
2.489751e+003,7.210693e+001
2.490715e+003,7.265527e+001
2.491680e+003,7.285620e+001
2.492644e+003,7.141895e+001
2.493608e+003,7.119067e+001
2.494572e+003,7.431995e+001
2.495537e+003,7.756689e+001
2.496501e+003,7.838867e+001
2.497465e+003,7.685950e+001
2.498429e+003,7.373315e+001
2.499394e+003,7.013086e+001
2.500358e+003,6.750122e+001
2.501322e+003,6.610254e+001
2.502286e+003,7.021545e+001
2.503250e+003,7.862732e+001
2.504215e+003,8.126184e+001
2.505179e+003,7.808850e+001
2.506143e+003,7.599219e+001
2.507107e+003,7.618762e+001
2.508072e+003,7.628699e+001
2.509036e+003,7.582825e+001
2.510000e+003,7.667761e+001
2.510964e+003,7.989575e+001
2.511929e+003,8.105701e+001
2.512893e+003,7.476611e+001
2.513857e+003,6.962903e+001
2.514821e+003,7.127539e+001
2.515786e+003,7.305896e+001
2.516750e+003,7.170398e+001
2.517714e+003,7.133154e+001
2.518678e+003,7.517676e+001
2.519643e+003,7.906506e+001
2.520607e+003,8.015405e+001
2.521571e+003,7.895276e+001
2.522535e+003,7.515942e+001
2.523500e+003,6.964050e+001
2.524464e+003,6.718408e+001
2.525428e+003,6.777319e+001
2.526392e+003,6.912048e+001
2.527356e+003,7.167639e+001
2.528321e+003,7.050977e+001
2.529285e+003,6.595276e+001
2.530249e+003,6.613245e+001
2.531213e+003,7.063171e+001
2.532177e+003,7.249878e+001
2.533142e+003,7.097595e+001
2.534106e+003,7.050073e+001
2.535070e+003,7.275000e+001
2.536034e+003,7.540100e+001
2.536999e+003,7.631409e+001
2.537963e+003,7.469104e+001
2.538927e+003,6.966162e+001
2.539891e+003,6.719592e+001
2.540855e+003,7.221814e+001
2.541820e+003,7.735803e+001
2.542784e+003,7.722131e+001
2.543748e+003,7.452893e+001
2.544712e+003,7.105029e+001
2.545677e+003,6.846655e+001
2.546641e+003,6.870435e+001
2.547605e+003,7.011633e+001
2.548569e+003,6.932507e+001
2.549534e+003,6.727649e+001
2.550498e+003,6.702551e+001
2.551462e+003,6.863818e+001
2.552426e+003,7.111414e+001
2.553391e+003,7.271655e+001
2.554355e+003,6.999292e+001
2.555319e+003,6.448950e+001
2.556283e+003,6.232813e+001
2.557248e+003,6.468030e+001
2.558212e+003,6.693909e+001
2.559176e+003,6.674597e+001
2.560140e+003,6.635046e+001
2.561104e+003,6.699402e+001
2.562069e+003,6.774561e+001
2.563033e+003,7.020703e+001
2.563997e+003,6.998413e+001
2.564961e+003,6.395300e+001
2.565926e+003,5.952295e+001
2.566890e+003,5.893494e+001
2.567854e+003,6.054333e+001
2.568818e+003,6.329431e+001
2.569783e+003,6.518042e+001
2.570747e+003,6.534644e+001
2.571711e+003,6.419092e+001
2.572675e+003,6.016931e+001
2.573640e+003,5.519775e+001
2.574604e+003,5.415735e+001
2.575568e+003,5.538269e+001
2.576532e+003,5.913733e+001
2.577497e+003,6.319727e+001
2.578461e+003,6.142883e+001
2.579425e+003,5.676013e+001
2.580389e+003,5.494080e+001
2.581354e+003,5.504163e+001
2.582318e+003,5.377405e+001
2.583282e+003,5.141370e+001
2.584246e+003,5.053625e+001
2.585210e+003,5.249451e+001
2.586175e+003,5.318652e+001
2.587139e+003,5.105347e+001
2.588103e+003,4.986389e+001
2.589067e+003,4.997534e+001
2.590031e+003,5.019507e+001
2.590996e+003,5.005554e+001
2.591960e+003,4.936292e+001
2.592924e+003,4.881836e+001
2.593888e+003,4.862085e+001
2.594853e+003,4.829346e+001
2.595817e+003,4.758350e+001
2.596781e+003,4.584033e+001
2.597745e+003,4.344409e+001
2.598709e+003,4.172070e+001
2.599674e+003,4.221497e+001
2.600638e+003,4.598291e+001
2.601602e+003,4.852271e+001
2.602566e+003,4.598450e+001
2.603531e+003,4.232495e+001
2.604495e+003,4.333936e+001
2.605459e+003,4.611377e+001
2.606423e+003,4.472485e+001
2.607388e+003,4.034912e+001
2.608352e+003,3.896619e+001
2.609316e+003,4.054517e+001
2.610280e+003,4.143176e+001
2.611245e+003,4.213257e+001
2.612209e+003,4.242554e+001
2.613173e+003,4.152979e+001
2.614137e+003,3.893713e+001
2.615102e+003,3.523962e+001
2.616066e+003,3.333557e+001
2.617030e+003,3.398218e+001
2.617994e+003,3.491626e+001
2.618958e+003,3.555359e+001
2.619923e+003,3.678870e+001
2.620887e+003,3.796741e+001
2.621851e+003,3.905444e+001
2.622815e+003,4.032751e+001
2.623780e+003,4.109473e+001
2.624744e+003,4.231030e+001
2.625708e+003,4.019299e+001
2.626672e+003,3.352917e+001
2.627637e+003,2.997424e+001
2.628601e+003,3.269629e+001
2.629565e+003,3.655591e+001
2.630529e+003,3.798462e+001
2.631494e+003,3.848901e+001
2.632458e+003,3.918274e+001
2.633422e+003,3.918481e+001
2.634386e+003,3.604639e+001
2.635351e+003,3.242847e+001
2.636315e+003,3.336206e+001
2.637279e+003,3.576819e+001
2.638243e+003,3.761609e+001
2.639208e+003,3.843152e+001
2.640172e+003,3.557813e+001
2.641136e+003,3.070190e+001
2.642100e+003,2.667334e+001
2.643064e+003,2.400732e+001
2.644029e+003,2.526318e+001
2.644993e+003,3.018469e+001
2.645957e+003,3.319458e+001
2.646921e+003,3.495251e+001
2.647885e+003,3.587048e+001
2.648850e+003,3.531226e+001
2.649814e+003,3.230542e+001
2.650778e+003,2.763831e+001
2.651742e+003,2.517932e+001
2.652707e+003,2.543115e+001
2.653671e+003,2.628674e+001
2.654635e+003,2.788818e+001
2.655599e+003,2.992090e+001
2.656563e+003,3.090308e+001
2.657528e+003,3.281909e+001
2.658492e+003,3.559558e+001
2.659456e+003,3.623132e+001
2.660420e+003,3.665698e+001
2.661385e+003,3.482092e+001
2.662349e+003,2.969849e+001
2.663313e+003,2.808936e+001
2.664277e+003,3.175476e+001
2.665242e+003,3.384485e+001
2.666206e+003,3.083923e+001
2.667170e+003,2.683838e+001
2.668134e+003,2.424927e+001
2.669099e+003,2.317615e+001
2.670063e+003,2.673767e+001
2.671027e+003,2.957886e+001
2.671991e+003,2.553149e+001
2.672956e+003,2.171960e+001
2.673920e+003,2.417590e+001
2.674884e+003,2.710291e+001
2.675848e+003,2.639941e+001
2.676813e+003,2.538269e+001
2.677777e+003,2.730066e+001
2.678741e+003,2.874060e+001
2.679705e+003,2.495251e+001
2.680669e+003,2.003613e+001
2.681634e+003,1.932642e+001
2.682598e+003,2.042029e+001
2.683562e+003,2.463367e+001
2.684526e+003,2.880969e+001
2.685491e+003,2.598499e+001
2.686455e+003,2.186951e+001
2.687419e+003,2.347705e+001
2.688383e+003,2.694263e+001
2.689348e+003,2.720313e+001
2.690312e+003,2.519287e+001
2.691276e+003,2.216406e+001
2.692240e+003,1.923706e+001
2.693205e+003,1.972681e+001
2.694169e+003,2.187732e+001
2.695133e+003,2.284106e+001
2.696097e+003,2.272314e+001
2.697062e+003,2.290454e+001
2.698026e+003,2.411499e+001
2.698990e+003,2.300928e+001
2.699954e+003,1.939063e+001
2.700918e+003,1.836890e+001
2.701883e+003,2.073425e+001
2.702847e+003,2.144324e+001
2.703811e+003,1.970679e+001
2.704775e+003,1.834216e+001
2.705740e+003,1.752686e+001
2.706704e+003,1.801709e+001
2.707668e+003,1.962939e+001
2.708632e+003,2.083740e+001
2.709596e+003,2.116614e+001
2.710561e+003,1.950659e+001
2.711525e+003,1.604956e+001
2.712489e+003,1.449023e+001
2.713453e+003,1.617761e+001
2.714417e+003,1.707190e+001
2.715382e+003,1.464355e+001
2.716346e+003,1.213818e+001
2.717310e+003,1.363770e+001
2.718274e+003,1.600317e+001
2.719239e+003,1.431592e+001
2.720203e+003,1.264807e+001
2.721167e+003,1.321301e+001
2.722131e+003,1.406982e+001
2.723096e+003,1.572839e+001
2.724060e+003,1.605029e+001
2.725024e+003,1.235095e+001
2.725988e+003,8.174194e+000
2.726953e+003,9.102173e+000
2.727917e+003,1.262134e+001
2.728881e+003,1.162659e+001
2.729845e+003,8.493164e+000
2.730810e+003,9.216064e+000
2.731774e+003,1.002429e+001
2.732738e+003,8.885864e+000
2.733702e+003,8.872314e+000
2.734667e+003,8.719971e+000
2.735631e+003,8.069946e+000
2.736595e+003,9.103882e+000
2.737559e+003,1.098010e+001
2.738523e+003,1.202332e+001
2.739488e+003,1.300830e+001
2.740452e+003,1.321228e+001
2.741416e+003,1.251758e+001
2.742380e+003,1.162756e+001
2.743345e+003,1.048181e+001
2.744309e+003,8.048706e+000
2.745273e+003,6.179443e+000
2.746237e+003,9.713379e+000
2.747202e+003,1.582397e+001
2.748166e+003,1.710938e+001
2.749130e+003,1.461316e+001
2.750094e+003,1.288989e+001
2.751059e+003,1.141504e+001
2.752023e+003,1.206934e+001
2.752987e+003,1.416943e+001
2.753951e+003,1.333936e+001
2.754916e+003,1.077051e+001
2.755880e+003,8.755981e+000
2.756844e+003,8.116455e+000
2.757808e+003,1.189417e+001
2.758772e+003,1.829736e+001
2.759737e+003,2.072375e+001
2.760701e+003,1.809448e+001
2.761665e+003,1.448621e+001
2.762629e+003,1.038220e+001
2.763594e+003,8.102417e+000
2.764558e+003,7.236938e+000
2.765522e+003,7.951538e+000
2.766486e+003,1.070044e+001
2.767450e+003,1.160229e+001
2.768415e+003,1.095276e+001
2.769379e+003,1.098438e+001
2.770343e+003,1.088257e+001
2.771307e+003,1.118579e+001
2.772271e+003,1.336145e+001
2.773236e+003,1.450183e+001
2.774200e+003,1.425830e+001
2.775164e+003,1.547070e+001
2.776128e+003,1.102734e+001
2.777093e+003,8.437134e+000
2.778057e+003,1.438232e+001
2.779021e+003,1.608655e+001
2.779985e+003,1.230554e+001
2.780950e+003,1.140271e+001
2.781914e+003,1.236926e+001
2.782878e+003,1.285181e+001
2.783842e+003,1.406738e+001
2.784807e+003,1.408435e+001
2.785771e+003,1.229297e+001
2.786735e+003,1.134131e+001
2.787699e+003,9.942505e+000
2.788664e+003,1.006812e+001
2.789628e+003,1.308435e+001
2.790592e+003,1.346399e+001
2.791556e+003,9.265015e+000
2.792521e+003,7.922485e+000
2.793485e+003,1.223193e+001
2.794449e+003,1.610803e+001
2.795413e+003,1.664526e+001
2.796377e+003,1.607874e+001
2.797342e+003,1.457397e+001
2.798306e+003,1.409631e+001
2.799270e+003,1.665869e+001
2.800234e+003,1.915015e+001
2.801199e+003,1.865161e+001
2.802163e+003,1.732959e+001
2.803127e+003,1.642908e+001
2.804091e+003,1.490601e+001
2.805056e+003,1.425830e+001
2.806020e+003,1.509277e+001
2.806984e+003,1.386804e+001
2.807948e+003,1.057007e+001
2.808913e+003,1.127576e+001
2.809877e+003,1.317163e+001
2.810841e+003,1.180847e+001
2.811805e+003,1.317114e+001
2.812770e+003,1.793311e+001
2.813734e+003,1.823804e+001
2.814698e+003,1.478821e+001
2.815662e+003,1.225488e+001
2.816626e+003,1.107361e+001
2.817591e+003,1.093848e+001
2.818555e+003,1.266382e+001
2.819519e+003,1.403796e+001
2.820483e+003,1.031360e+001
2.821448e+003,6.636841e+000
2.822412e+003,1.089136e+001
2.823376e+003,1.603394e+001
2.824340e+003,1.716772e+001
2.825304e+003,1.715430e+001
2.826269e+003,1.634082e+001
2.827233e+003,1.565625e+001
2.828197e+003,1.609119e+001
2.829161e+003,1.628479e+001
2.830125e+003,1.518127e+001
2.831090e+003,1.351917e+001
2.832054e+003,1.208044e+001
2.833018e+003,1.159778e+001
2.833982e+003,1.115662e+001
2.834947e+003,1.114734e+001
2.835911e+003,1.528186e+001
2.836875e+003,1.950623e+001
2.837839e+003,1.855957e+001
2.838804e+003,1.610596e+001
2.839768e+003,1.405408e+001
2.840732e+003,1.279211e+001
2.841696e+003,1.411829e+001
2.842661e+003,1.614209e+001
2.843625e+003,1.612268e+001
2.844589e+003,1.638647e+001
2.845553e+003,1.664026e+001
2.846518e+003,1.677441e+001
2.847482e+003,1.803491e+001
2.848446e+003,1.798267e+001
2.849410e+003,1.501575e+001
2.850375e+003,1.384253e+001
2.851339e+003,1.754138e+001
2.852303e+003,2.185718e+001
2.853267e+003,2.173914e+001
2.854231e+003,1.968250e+001
2.855196e+003,2.005249e+001
2.856160e+003,2.130627e+001
2.857124e+003,2.256982e+001
2.858088e+003,2.312427e+001
2.859053e+003,2.055725e+001
2.860017e+003,1.783447e+001
2.860981e+003,1.747424e+001
2.861945e+003,1.717371e+001
2.862910e+003,1.660388e+001
2.863874e+003,1.614502e+001
2.864838e+003,1.379919e+001
2.865802e+003,1.186414e+001
2.866767e+003,1.800012e+001
2.867731e+003,2.515735e+001
2.868695e+003,2.526184e+001
2.869659e+003,2.284033e+001
2.870624e+003,1.854688e+001
2.871588e+003,1.560315e+001
2.872552e+003,1.664294e+001
2.873516e+003,1.869312e+001
2.874480e+003,2.073755e+001
2.875445e+003,2.286548e+001
2.876409e+003,2.404785e+001
2.877373e+003,2.480481e+001
2.878337e+003,2.592163e+001
2.879302e+003,2.629163e+001
2.880266e+003,2.679480e+001
2.881230e+003,2.692578e+001
2.882194e+003,2.491772e+001
2.883158e+003,2.303882e+001
2.884123e+003,2.231250e+001
2.885087e+003,2.134436e+001
2.886051e+003,1.964099e+001
2.887015e+003,1.891895e+001
2.887979e+003,2.071570e+001
2.888944e+003,2.302490e+001
2.889908e+003,2.319373e+001
2.890872e+003,2.136267e+001
2.891836e+003,1.782581e+001
2.892801e+003,1.490173e+001
2.893765e+003,1.332056e+001
2.894729e+003,1.396765e+001
2.895693e+003,1.842249e+001
2.896658e+003,2.187976e+001
2.897622e+003,1.962756e+001
2.898586e+003,1.518713e+001
2.899550e+003,1.359753e+001
2.900515e+003,1.355420e+001
2.901479e+003,1.299072e+001
2.902443e+003,1.401367e+001
2.903407e+003,1.905188e+001
2.904372e+003,2.164282e+001
2.905336e+003,1.867139e+001
2.906300e+003,1.593628e+001
2.907264e+003,1.489453e+001
2.908229e+003,1.512012e+001
2.909193e+003,1.715259e+001
2.910157e+003,1.968872e+001
2.911121e+003,2.097876e+001
2.912085e+003,2.194739e+001
2.913050e+003,2.226941e+001
2.914014e+003,2.087708e+001
2.914978e+003,1.764417e+001
2.915942e+003,1.574170e+001
2.916907e+003,1.606787e+001
2.917871e+003,1.750574e+001
2.918835e+003,1.958533e+001
2.919799e+003,2.256384e+001
2.920764e+003,2.642407e+001
2.921728e+003,2.895337e+001
2.922692e+003,2.764807e+001
2.923656e+003,2.597351e+001
2.924621e+003,2.788232e+001
2.925585e+003,2.797913e+001
2.926549e+003,2.392261e+001
2.927513e+003,2.081714e+001
2.928478e+003,1.929602e+001
2.929442e+003,1.906555e+001
2.930406e+003,1.991479e+001
2.931370e+003,2.062769e+001
2.932334e+003,2.114124e+001
2.933299e+003,2.230469e+001
2.934263e+003,2.390259e+001
2.935227e+003,2.616626e+001
2.936191e+003,2.994739e+001
2.937156e+003,3.084875e+001
2.938120e+003,2.848291e+001
2.939084e+003,2.779138e+001
2.940048e+003,2.947083e+001
2.941012e+003,3.108398e+001
2.941977e+003,3.165381e+001
2.942941e+003,3.042505e+001
2.943905e+003,2.711572e+001
2.944869e+003,2.494568e+001
2.945833e+003,2.619666e+001
2.946798e+003,2.681958e+001
2.947762e+003,2.610352e+001
2.948726e+003,2.775623e+001
2.949690e+003,3.135986e+001
2.950655e+003,3.236182e+001
2.951619e+003,3.051709e+001
2.952583e+003,2.923083e+001
2.953547e+003,2.948462e+001
2.954512e+003,3.021753e+001
2.955476e+003,3.172559e+001
2.956440e+003,3.221570e+001
2.957404e+003,3.025891e+001
2.958369e+003,2.756677e+001
2.959333e+003,2.463745e+001
2.960297e+003,2.583374e+001
2.961261e+003,3.010901e+001
2.962226e+003,3.171375e+001
2.963190e+003,3.016064e+001
2.964154e+003,2.809937e+001
2.965118e+003,2.734290e+001
2.966083e+003,2.987793e+001
2.967047e+003,3.430066e+001
2.968011e+003,3.417358e+001
2.968975e+003,3.003418e+001
2.969939e+003,3.033899e+001
2.970904e+003,3.361316e+001
2.971868e+003,3.569360e+001
2.972832e+003,3.577380e+001
2.973796e+003,3.148633e+001
2.974761e+003,2.650146e+001
2.975725e+003,2.744434e+001
2.976689e+003,3.125281e+001
2.977653e+003,3.336536e+001
2.978618e+003,3.418311e+001
2.979582e+003,3.440613e+001
2.980546e+003,3.428552e+001
2.981510e+003,3.298840e+001
2.982475e+003,3.137146e+001
2.983439e+003,2.999512e+001
2.984403e+003,2.972754e+001
2.985367e+003,3.286572e+001
2.986332e+003,3.564465e+001
2.987296e+003,3.464954e+001
2.988260e+003,3.265686e+001
2.989224e+003,3.297131e+001
2.990188e+003,3.411230e+001
2.991153e+003,3.556677e+001
2.992117e+003,3.640979e+001
2.993081e+003,3.427490e+001
2.994045e+003,3.268933e+001
2.995010e+003,3.377600e+001
2.995974e+003,3.373486e+001
2.996938e+003,3.118652e+001
2.997902e+003,3.004480e+001
2.998866e+003,3.238904e+001
2.999831e+003,3.510742e+001
3.000795e+003,3.603137e+001
3.001759e+003,3.624402e+001
3.002723e+003,3.602283e+001
3.003688e+003,3.554663e+001
3.004652e+003,3.529248e+001
3.005616e+003,3.557056e+001
3.006580e+003,3.599609e+001
3.007544e+003,3.737927e+001
3.008509e+003,3.957056e+001
3.009473e+003,3.962708e+001
3.010437e+003,3.708826e+001
3.011401e+003,3.696570e+001
3.012366e+003,4.148755e+001
3.013330e+003,4.232324e+001
3.014294e+003,3.863965e+001
3.015258e+003,3.577588e+001
3.016223e+003,3.435962e+001
3.017187e+003,3.653845e+001
3.018151e+003,4.102759e+001
3.019115e+003,4.272974e+001
3.020080e+003,4.208777e+001
3.021044e+003,4.402979e+001
3.022008e+003,4.724231e+001
3.022972e+003,4.500854e+001
3.023937e+003,3.922058e+001
3.024901e+003,3.968347e+001
3.025865e+003,4.471399e+001
3.026829e+003,4.692249e+001
3.027793e+003,4.597400e+001
3.028758e+003,4.203198e+001
3.029722e+003,3.882251e+001
3.030686e+003,4.310876e+001
3.031650e+003,4.854504e+001
3.032615e+003,4.630298e+001
3.033579e+003,4.103992e+001
3.034543e+003,4.034106e+001
3.035507e+003,4.200403e+001
3.036472e+003,4.363574e+001
3.037436e+003,4.416675e+001
3.038400e+003,4.381628e+001
3.039364e+003,4.366956e+001
3.040329e+003,4.221680e+001
3.041293e+003,4.193250e+001
3.042257e+003,4.468481e+001
3.043221e+003,4.637183e+001
3.044186e+003,4.408423e+001
3.045150e+003,4.228491e+001
3.046114e+003,4.438513e+001
3.047078e+003,4.693591e+001
3.048042e+003,4.844873e+001
3.049007e+003,4.822754e+001
3.049971e+003,4.651880e+001
3.050935e+003,4.529419e+001
3.051899e+003,4.544617e+001
3.052864e+003,4.565515e+001
3.053828e+003,4.520752e+001
3.054792e+003,4.615759e+001
3.055756e+003,4.947766e+001
3.056720e+003,5.182336e+001
3.057685e+003,5.221045e+001
3.058649e+003,5.219617e+001
3.059613e+003,5.176050e+001
3.060577e+003,5.133557e+001
3.061542e+003,5.153149e+001
3.062506e+003,5.219397e+001
3.063470e+003,5.298987e+001
3.064434e+003,5.263696e+001
3.065398e+003,5.083179e+001
3.066363e+003,5.099597e+001
3.067327e+003,5.330408e+001
3.068291e+003,5.332837e+001
3.069255e+003,5.175122e+001
3.070220e+003,5.263330e+001
3.071184e+003,5.413562e+001
3.072148e+003,5.336389e+001
3.073112e+003,5.251172e+001
3.074077e+003,5.266833e+001
3.075041e+003,5.289807e+001
3.076005e+003,5.356738e+001
3.076969e+003,5.509082e+001
3.077934e+003,5.733057e+001
3.078898e+003,5.876929e+001
3.079862e+003,5.746826e+001
3.080826e+003,5.610840e+001
3.081791e+003,5.680200e+001
3.082755e+003,5.800317e+001
3.083719e+003,5.929688e+001
3.084683e+003,5.885681e+001
3.085647e+003,5.617993e+001
3.086612e+003,5.593079e+001
3.087576e+003,5.967029e+001
3.088540e+003,6.204321e+001
3.089504e+003,6.065381e+001
3.090469e+003,6.079468e+001
3.091433e+003,6.562610e+001
3.092397e+003,6.501599e+001
3.093361e+003,5.824976e+001
3.094326e+003,5.743591e+001
3.095290e+003,6.248010e+001
3.096254e+003,6.388159e+001
3.097218e+003,6.082568e+001
3.098183e+003,6.028125e+001
3.099147e+003,6.346826e+001
3.100111e+003,6.289526e+001
3.101075e+003,5.904260e+001
3.102040e+003,6.153967e+001
3.103004e+003,6.710510e+001
3.103968e+003,6.725110e+001
3.104932e+003,6.448169e+001
3.105896e+003,6.139929e+001
3.106861e+003,5.984119e+001
3.107825e+003,6.186572e+001
3.108789e+003,6.528833e+001
3.109753e+003,6.783655e+001
3.110718e+003,6.885645e+001
3.111682e+003,6.741882e+001
3.112646e+003,6.537341e+001
3.113610e+003,6.376685e+001
3.114574e+003,6.282361e+001
3.115539e+003,6.216382e+001
3.116503e+003,6.171423e+001
3.117467e+003,6.153540e+001
3.118431e+003,6.408911e+001
3.119396e+003,7.013452e+001
3.120360e+003,7.366577e+001
3.121324e+003,7.092920e+001
3.122288e+003,6.902039e+001
3.123252e+003,7.238599e+001
3.124217e+003,7.325391e+001
3.125181e+003,7.206970e+001
3.126145e+003,7.068237e+001
3.127109e+003,6.962451e+001
3.128074e+003,6.998279e+001
3.129038e+003,7.103833e+001
3.130002e+003,7.306982e+001
3.130966e+003,7.555542e+001
3.131931e+003,7.566650e+001
3.132895e+003,7.491272e+001
3.133859e+003,7.471509e+001
3.134823e+003,7.426929e+001
3.135788e+003,7.437244e+001
3.136752e+003,7.486853e+001
3.137716e+003,7.615149e+001
3.138680e+003,7.792395e+001
3.139645e+003,7.860205e+001
3.140609e+003,7.790027e+001
3.141573e+003,7.688049e+001
3.142537e+003,7.664746e+001
3.143501e+003,7.759070e+001
3.144466e+003,7.816125e+001
3.145430e+003,7.555383e+001
3.146394e+003,7.512988e+001
3.147358e+003,8.099512e+001
3.148323e+003,8.231775e+001
3.149287e+003,7.667273e+001
3.150251e+003,7.249927e+001
3.151215e+003,7.239526e+001
3.152180e+003,7.533276e+001
3.153144e+003,8.112268e+001
3.154108e+003,8.360767e+001
3.155072e+003,8.017212e+001
3.156037e+003,8.070300e+001
3.157001e+003,8.467493e+001
3.157965e+003,8.372729e+001
3.158929e+003,8.103809e+001
3.159894e+003,8.317358e+001
3.160858e+003,8.696619e+001
3.161822e+003,8.810364e+001
3.162786e+003,8.692761e+001
3.163750e+003,8.348730e+001
3.164715e+003,8.034473e+001
3.165679e+003,8.331885e+001
3.166643e+003,8.816345e+001
3.167607e+003,8.824158e+001
3.168572e+003,8.713696e+001
3.169536e+003,8.618762e+001
3.170500e+003,8.649329e+001
3.171464e+003,8.944421e+001
3.172428e+003,9.138428e+001
3.173393e+003,9.021130e+001
3.174357e+003,8.947839e+001
3.175321e+003,9.142432e+001
3.176285e+003,9.184607e+001
3.177250e+003,8.862732e+001
3.178214e+003,8.678320e+001
3.179178e+003,8.660730e+001
3.180142e+003,8.755554e+001
3.181106e+003,8.850488e+001
3.182071e+003,8.998108e+001
3.183035e+003,9.158264e+001
3.183999e+003,9.119446e+001
3.184963e+003,9.026563e+001
3.185928e+003,9.093726e+001
3.186892e+003,9.196448e+001
3.187856e+003,9.284912e+001
3.188820e+003,9.384253e+001
3.189785e+003,9.503467e+001
3.190749e+003,9.551636e+001
3.191713e+003,9.419348e+001
3.192677e+003,9.238489e+001
3.193642e+003,9.048132e+001
3.194606e+003,9.138367e+001
3.195570e+003,9.669519e+001
3.196534e+003,1.000604e+002
3.197499e+003,9.613855e+001
3.198463e+003,9.342957e+001
3.199427e+003,9.632104e+001
3.200391e+003,9.768799e+001
3.201355e+003,9.723987e+001
3.202320e+003,1.003665e+002
3.203284e+003,1.060211e+002
3.204248e+003,1.067043e+002
3.205212e+003,1.024290e+002
3.206177e+003,9.798584e+001
3.207141e+003,9.520776e+001
3.208105e+003,9.887537e+001
3.209069e+003,1.065729e+002
3.210034e+003,1.059058e+002
3.210998e+003,1.021991e+002
3.211962e+003,1.064521e+002
3.212926e+003,1.113477e+002
3.213891e+003,1.090956e+002
3.214855e+003,1.049839e+002
3.215819e+003,1.011747e+002
3.216783e+003,1.003909e+002
3.217748e+003,1.053665e+002
3.218712e+003,1.097699e+002
3.219676e+003,1.082439e+002
3.220640e+003,1.054221e+002
3.221604e+003,1.019907e+002
3.222569e+003,1.007301e+002
3.223533e+003,1.021284e+002
3.224497e+003,1.034540e+002
3.225461e+003,1.039205e+002
3.226426e+003,1.049647e+002
3.227390e+003,1.066763e+002
3.228354e+003,1.069974e+002
3.229318e+003,1.061173e+002
3.230282e+003,1.071145e+002
3.231247e+003,1.085553e+002
3.232211e+003,1.060586e+002
3.233175e+003,1.043503e+002
3.234139e+003,1.081149e+002
3.235104e+003,1.118436e+002
3.236068e+003,1.123425e+002
3.237032e+003,1.119208e+002
3.237996e+003,1.124088e+002
3.238960e+003,1.127963e+002
3.239925e+003,1.118353e+002
3.240889e+003,1.109473e+002
3.241853e+003,1.109169e+002
3.242817e+003,1.113103e+002
3.243782e+003,1.120752e+002
3.244746e+003,1.123174e+002
3.245710e+003,1.124952e+002
3.246674e+003,1.134646e+002
3.247639e+003,1.144559e+002
3.248603e+003,1.151993e+002
3.249567e+003,1.161996e+002
3.250531e+003,1.155038e+002
3.251496e+003,1.133529e+002
3.252460e+003,1.124250e+002
3.253424e+003,1.121326e+002
3.254388e+003,1.122399e+002
3.255353e+003,1.146624e+002
3.256317e+003,1.201766e+002
3.257281e+003,1.218981e+002
3.258245e+003,1.173865e+002
3.259209e+003,1.146174e+002
3.260174e+003,1.181198e+002
3.261138e+003,1.206754e+002
3.262102e+003,1.177026e+002
3.263066e+003,1.170072e+002
3.264031e+003,1.194181e+002
3.264995e+003,1.207576e+002
3.265959e+003,1.207439e+002
3.266923e+003,1.203839e+002
3.267888e+003,1.202568e+002
3.268852e+003,1.201984e+002
3.269816e+003,1.202488e+002
3.270780e+003,1.213827e+002
3.271745e+003,1.225435e+002
3.272709e+003,1.219528e+002
3.273673e+003,1.213905e+002
3.274637e+003,1.208531e+002
3.275602e+003,1.225479e+002
3.276566e+003,1.285750e+002
3.277530e+003,1.325511e+002
3.278494e+003,1.328859e+002
3.279458e+003,1.291544e+002
3.280423e+003,1.220819e+002
3.281387e+003,1.194453e+002
3.282351e+003,1.249304e+002
3.283315e+003,1.276465e+002
3.284280e+003,1.269763e+002
3.285244e+003,1.290428e+002
3.286208e+003,1.327412e+002
3.287172e+003,1.342793e+002
3.288136e+003,1.348401e+002
3.289101e+003,1.382924e+002
3.290065e+003,1.399148e+002
3.291029e+003,1.340056e+002
3.291993e+003,1.274514e+002
3.292958e+003,1.293212e+002
3.293922e+003,1.339391e+002
3.294886e+003,1.380497e+002
3.295850e+003,1.394008e+002
3.296814e+003,1.364788e+002
3.297779e+003,1.344065e+002
3.298743e+003,1.341252e+002
3.299707e+003,1.341975e+002
3.300671e+003,1.340873e+002
3.301636e+003,1.329216e+002
3.302600e+003,1.307141e+002
3.303564e+003,1.316404e+002
3.304528e+003,1.356716e+002
3.305493e+003,1.401299e+002
3.306457e+003,1.435009e+002
3.307421e+003,1.424414e+002
3.308385e+003,1.404591e+002
3.309350e+003,1.414933e+002
3.310314e+003,1.422329e+002
3.311278e+003,1.403945e+002
3.312242e+003,1.387097e+002
3.313207e+003,1.402052e+002
3.314171e+003,1.426451e+002
3.315135e+003,1.417422e+002
3.316099e+003,1.434264e+002
3.317063e+003,1.488274e+002
3.318028e+003,1.504535e+002
3.318992e+003,1.492388e+002
3.319956e+003,1.479773e+002
3.320920e+003,1.463300e+002
3.321885e+003,1.424100e+002
3.322849e+003,1.393861e+002
3.323813e+003,1.435570e+002
3.324777e+003,1.497054e+002
3.325742e+003,1.474323e+002
3.326706e+003,1.445259e+002
3.327670e+003,1.483625e+002
3.328634e+003,1.527550e+002
3.329599e+003,1.556230e+002
3.330563e+003,1.560208e+002
3.331527e+003,1.539067e+002
3.332491e+003,1.554192e+002
3.333456e+003,1.621245e+002
3.334420e+003,1.623108e+002
3.335384e+003,1.555820e+002
3.336348e+003,1.537878e+002
3.337313e+003,1.552645e+002
3.338277e+003,1.586727e+002
3.339241e+003,1.604443e+002
3.340205e+003,1.534653e+002
3.341169e+003,1.484979e+002
3.342134e+003,1.549551e+002
3.343098e+003,1.625336e+002
3.344062e+003,1.631198e+002
3.345026e+003,1.615248e+002
3.345990e+003,1.599249e+002
3.346955e+003,1.597922e+002
3.347919e+003,1.611371e+002
3.348883e+003,1.624368e+002
3.349847e+003,1.643177e+002
3.350812e+003,1.640294e+002
3.351776e+003,1.618931e+002
3.352740e+003,1.600038e+002
3.353704e+003,1.590062e+002
3.354668e+003,1.602372e+002
3.355633e+003,1.631654e+002
3.356597e+003,1.659326e+002
3.357561e+003,1.679489e+002
3.358525e+003,1.694464e+002
3.359490e+003,1.701068e+002
3.360454e+003,1.701530e+002
3.361418e+003,1.704401e+002
3.362382e+003,1.706886e+002
3.363347e+003,1.705153e+002
3.364311e+003,1.697111e+002
3.365275e+003,1.703601e+002
3.366239e+003,1.732869e+002
3.367204e+003,1.717841e+002
3.368168e+003,1.676710e+002
3.369132e+003,1.658625e+002
3.370096e+003,1.665195e+002
3.371061e+003,1.719633e+002
3.372025e+003,1.769534e+002
3.372989e+003,1.778666e+002
3.373953e+003,1.775701e+002
3.374917e+003,1.779941e+002
3.375882e+003,1.779409e+002
3.376846e+003,1.751707e+002
3.377810e+003,1.732863e+002
3.378774e+003,1.730526e+002
3.379739e+003,1.749965e+002
3.380703e+003,1.786086e+002
3.381667e+003,1.795433e+002
3.382631e+003,1.782134e+002
3.383596e+003,1.765380e+002
3.384560e+003,1.755938e+002
3.385524e+003,1.755111e+002
3.386488e+003,1.761215e+002
3.387453e+003,1.807709e+002
3.388417e+003,1.843094e+002
3.389381e+003,1.791483e+002
3.390345e+003,1.762384e+002
3.391310e+003,1.782329e+002
3.392274e+003,1.795151e+002
3.393238e+003,1.797365e+002
3.394202e+003,1.817122e+002
3.395167e+003,1.848759e+002
3.396131e+003,1.837681e+002
3.397095e+003,1.788257e+002
3.398059e+003,1.779589e+002
3.399023e+003,1.810043e+002
3.399988e+003,1.851353e+002
3.400952e+003,1.884442e+002
3.401916e+003,1.883110e+002
3.402880e+003,1.874822e+002
3.403844e+003,1.875739e+002
3.404809e+003,1.855519e+002
3.405773e+003,1.798531e+002
3.406737e+003,1.764497e+002
3.407701e+003,1.797235e+002
3.408666e+003,1.821741e+002
3.409630e+003,1.832228e+002
3.410594e+003,1.845125e+002
3.411558e+003,1.855215e+002
3.412522e+003,1.869071e+002
3.413487e+003,1.888311e+002
3.414451e+003,1.911801e+002
3.415415e+003,1.918007e+002
3.416379e+003,1.880358e+002
3.417344e+003,1.844470e+002
3.418308e+003,1.861270e+002
3.419272e+003,1.886437e+002
3.420236e+003,1.910742e+002
3.421201e+003,1.914727e+002
3.422165e+003,1.904752e+002
3.423129e+003,1.915842e+002
3.424093e+003,1.940715e+002
3.425058e+003,1.946162e+002
3.426022e+003,1.938093e+002
3.426986e+003,1.944064e+002
3.427950e+003,1.956100e+002
3.428915e+003,1.951927e+002
3.429879e+003,1.955612e+002
3.430843e+003,1.992163e+002
3.431807e+003,2.010686e+002
3.432771e+003,1.996064e+002
3.433736e+003,1.993269e+002
3.434700e+003,2.007141e+002
3.435664e+003,1.997239e+002
3.436628e+003,1.965881e+002
3.437593e+003,1.951423e+002
3.438557e+003,1.948602e+002
3.439521e+003,1.977155e+002
3.440485e+003,2.014713e+002
3.441450e+003,2.021439e+002
3.442414e+003,2.018163e+002
3.443378e+003,2.002688e+002
3.444342e+003,1.986819e+002
3.445307e+003,1.990796e+002
3.446271e+003,2.011805e+002
3.447235e+003,2.032643e+002
3.448199e+003,2.031603e+002
3.449164e+003,2.000242e+002
3.450128e+003,1.993766e+002
3.451092e+003,2.015745e+002
3.452056e+003,2.021962e+002
3.453021e+003,2.013204e+002
3.453985e+003,2.013385e+002
3.454949e+003,2.022434e+002
3.455913e+003,2.032192e+002
3.456877e+003,2.036429e+002
3.457842e+003,2.038987e+002
3.458806e+003,2.037782e+002
3.459770e+003,2.017629e+002
3.460734e+003,2.015352e+002
3.461698e+003,2.021630e+002
3.462663e+003,2.006202e+002
3.463627e+003,1.989426e+002
3.464591e+003,2.002799e+002
3.465555e+003,2.032457e+002
3.466520e+003,2.059781e+002
3.467484e+003,2.076719e+002
3.468448e+003,2.077563e+002
3.469412e+003,2.070414e+002
3.470376e+003,2.047975e+002
3.471341e+003,2.046912e+002
3.472305e+003,2.068433e+002
3.473269e+003,2.069410e+002
3.474233e+003,2.052339e+002
3.475198e+003,2.054291e+002
3.476162e+003,2.079290e+002
3.477126e+003,2.096377e+002
3.478090e+003,2.103514e+002
3.479055e+003,2.122930e+002
3.480019e+003,2.132444e+002
3.480983e+003,2.100107e+002
3.481947e+003,2.081022e+002
3.482912e+003,2.082719e+002
3.483876e+003,2.097349e+002
3.484840e+003,2.116196e+002
3.485804e+003,2.103009e+002
3.486769e+003,2.068098e+002
3.487733e+003,2.083420e+002
3.488697e+003,2.132356e+002
3.489661e+003,2.137106e+002
3.490625e+003,2.112610e+002
3.491590e+003,2.108735e+002
3.492554e+003,2.108434e+002
3.493518e+003,2.090292e+002
3.494482e+003,2.107910e+002
3.495447e+003,2.164088e+002
3.496411e+003,2.178993e+002
3.497375e+003,2.136135e+002
3.498339e+003,2.134116e+002
3.499304e+003,2.189276e+002
3.500268e+003,2.202317e+002
