9.941663e+001,0.000000e+000
1.003809e+002,2.753200e+002
1.013451e+002,2.758394e+002
1.023093e+002,2.830490e+002
1.032736e+002,2.883201e+002
1.042378e+002,2.893261e+002
1.052020e+002,2.893594e+002
1.061663e+002,2.896777e+002
1.071305e+002,2.907792e+002
1.080947e+002,2.884711e+002
1.090590e+002,2.820057e+002
1.100232e+002,2.747723e+002
1.109874e+002,2.690044e+002
1.119517e+002,2.663269e+002
1.129159e+002,2.657485e+002
1.138801e+002,2.664432e+002
1.148444e+002,2.680196e+002
1.158086e+002,2.697199e+002
1.167728e+002,2.694503e+002
1.177371e+002,2.671420e+002
1.187013e+002,2.653036e+002
1.196655e+002,2.646201e+002
1.206298e+002,2.651353e+002
1.215940e+002,2.648405e+002
1.225582e+002,2.631361e+002
1.235225e+002,2.607814e+002
1.244867e+002,2.581523e+002
1.254509e+002,2.555581e+002
1.264152e+002,2.543766e+002
1.273794e+002,2.542607e+002
1.283436e+002,2.543352e+002
1.293079e+002,2.541407e+002
1.302721e+002,2.535202e+002
1.312363e+002,2.524114e+002
1.322006e+002,2.506270e+002
1.331648e+002,2.483784e+002
1.341290e+002,2.460383e+002
1.350933e+002,2.443336e+002
1.360575e+002,2.432604e+002
1.370217e+002,2.431240e+002
1.379860e+002,2.447628e+002
1.389502e+002,2.481885e+002
1.399144e+002,2.492466e+002
1.408787e+002,2.457054e+002
1.418429e+002,2.416298e+002
1.428071e+002,2.383730e+002
1.437714e+002,2.364824e+002
1.447356e+002,2.352917e+002
1.456998e+002,2.343137e+002
1.466641e+002,2.332941e+002
1.476283e+002,2.319559e+002
1.485925e+002,2.299866e+002
1.495568e+002,2.280633e+002
1.505210e+002,2.276466e+002
1.514852e+002,2.281736e+002
1.524495e+002,2.285679e+002
1.534137e+002,2.269751e+002
1.543779e+002,2.230980e+002
1.553422e+002,2.203850e+002
1.563064e+002,2.192892e+002
1.572706e+002,2.194935e+002
1.582349e+002,2.194380e+002
1.591991e+002,2.187451e+002
1.601633e+002,2.175322e+002
1.611276e+002,2.154866e+002
1.620918e+002,2.127006e+002
1.630560e+002,2.107656e+002
1.640203e+002,2.116169e+002
1.649845e+002,2.126694e+002
1.659487e+002,2.123223e+002
1.669130e+002,2.096496e+002
1.678772e+002,2.066645e+002
1.688414e+002,2.072229e+002
1.698057e+002,2.095430e+002
1.707699e+002,2.112719e+002
1.717341e+002,2.098951e+002
1.726984e+002,2.051099e+002
1.736626e+002,2.032547e+002
1.746268e+002,2.051584e+002
1.755911e+002,2.087034e+002
1.765553e+002,2.098907e+002
1.775195e+002,2.055839e+002
1.784838e+002,2.013441e+002
1.794480e+002,1.978991e+002
1.804122e+002,1.956218e+002
1.813765e+002,1.945674e+002
1.823407e+002,1.949086e+002
1.833049e+002,1.952349e+002
1.842692e+002,1.953965e+002
1.852334e+002,1.954168e+002
1.861976e+002,1.955347e+002
1.871619e+002,1.961743e+002
1.881261e+002,1.965618e+002
1.890903e+002,1.957327e+002
1.900546e+002,1.930865e+002
1.910188e+002,1.885370e+002
1.919830e+002,1.864053e+002
1.929473e+002,1.881026e+002
1.939115e+002,1.912966e+002
1.948757e+002,1.937426e+002
1.958400e+002,1.938408e+002
1.968042e+002,1.926989e+002
1.977684e+002,1.905384e+002
1.987327e+002,1.879076e+002
1.996969e+002,1.854911e+002
2.006611e+002,1.844198e+002
2.016254e+002,1.847557e+002
2.025896e+002,1.856568e+002
2.035538e+002,1.866611e+002
2.045181e+002,1.874184e+002
2.054823e+002,1.878143e+002
2.064465e+002,1.874230e+002
2.074108e+002,1.858243e+002
2.083750e+002,1.832801e+002
2.093392e+002,1.804796e+002
2.103035e+002,1.794402e+002
2.112677e+002,1.801638e+002
2.122319e+002,1.811940e+002
2.131962e+002,1.819349e+002
2.141604e+002,1.820815e+002
2.151246e+002,1.817537e+002
2.160889e+002,1.816189e+002
2.170531e+002,1.820964e+002
2.180173e+002,1.833234e+002
2.189816e+002,1.851256e+002
2.199458e+002,1.858395e+002
2.209100e+002,1.850530e+002
2.218743e+002,1.836008e+002
2.228385e+002,1.816254e+002
2.238027e+002,1.791166e+002
2.247670e+002,1.765837e+002
2.257312e+002,1.763339e+002
2.266954e+002,1.780776e+002
2.276597e+002,1.805290e+002
2.286239e+002,1.820557e+002
2.295881e+002,1.832271e+002
2.305524e+002,1.840791e+002
2.315166e+002,1.833990e+002
2.324808e+002,1.814494e+002
2.334451e+002,1.791410e+002
2.344093e+002,1.764316e+002
2.353735e+002,1.741053e+002
2.363378e+002,1.726350e+002
2.373020e+002,1.722109e+002
2.382662e+002,1.729056e+002
2.392305e+002,1.752568e+002
2.401947e+002,1.779073e+002
2.411589e+002,1.800761e+002
2.421232e+002,1.815693e+002
2.430874e+002,1.825312e+002
2.440516e+002,1.834122e+002
2.450159e+002,1.841268e+002
2.459801e+002,1.840055e+002
2.469443e+002,1.825646e+002
2.479086e+002,1.797723e+002
2.488728e+002,1.793113e+002
2.498370e+002,1.813327e+002
2.508013e+002,1.834519e+002
2.517655e+002,1.852016e+002
2.527297e+002,1.867951e+002
2.536940e+002,1.870692e+002
2.546582e+002,1.855080e+002
2.556224e+002,1.843639e+002
2.565867e+002,1.848040e+002
2.575509e+002,1.872563e+002
2.585151e+002,1.898838e+002
2.594794e+002,1.902583e+002
2.604436e+002,1.892561e+002
2.614078e+002,1.882214e+002
2.623721e+002,1.885698e+002
2.633363e+002,1.906658e+002
2.643005e+002,1.915079e+002
2.652648e+002,1.908996e+002
2.662290e+002,1.903184e+002
2.671932e+002,1.917601e+002
2.681575e+002,1.974119e+002
2.691217e+002,1.999456e+002
2.700859e+002,1.970361e+002
2.710502e+002,1.917960e+002
2.720144e+002,1.886836e+002
2.729786e+002,1.917618e+002
2.739429e+002,1.959985e+002
2.749071e+002,1.987735e+002
2.758713e+002,1.998929e+002
2.768356e+002,1.997100e+002
2.777998e+002,1.986152e+002
2.787640e+002,1.972542e+002
2.797283e+002,1.969260e+002
2.806925e+002,1.980367e+002
2.816567e+002,2.002859e+002
2.826210e+002,2.019409e+002
2.835852e+002,2.020339e+002
2.845494e+002,2.023451e+002
2.855137e+002,2.027802e+002
2.864779e+002,2.029349e+002
2.874421e+002,2.021281e+002
2.884064e+002,2.006093e+002
2.893706e+002,1.997186e+002
2.903348e+002,1.999741e+002
2.912991e+002,2.013043e+002
2.922633e+002,2.028533e+002
2.932275e+002,2.032726e+002
2.941918e+002,2.036396e+002
2.951560e+002,2.046104e+002
2.961202e+002,2.062618e+002
2.970845e+002,2.080732e+002
2.980487e+002,2.087794e+002
2.990129e+002,2.090760e+002
2.999772e+002,2.092493e+002
3.009414e+002,2.094991e+002
3.019056e+002,2.099542e+002
3.028699e+002,2.109479e+002
3.038341e+002,2.110617e+002
3.047983e+002,2.111310e+002
3.057626e+002,2.122227e+002
3.067268e+002,2.151704e+002
3.076910e+002,2.175823e+002
3.086553e+002,2.170071e+002
3.096195e+002,2.151230e+002
3.105837e+002,2.134277e+002
3.115480e+002,2.130509e+002
3.125122e+002,2.133623e+002
3.134764e+002,2.122561e+002
3.144407e+002,2.110243e+002
3.154049e+002,2.110508e+002
3.163691e+002,2.132319e+002
3.173334e+002,2.169391e+002
3.182976e+002,2.204391e+002
3.192618e+002,2.246810e+002
3.202261e+002,2.282608e+002
3.211903e+002,2.297042e+002
3.221545e+002,2.279804e+002
3.231188e+002,2.274835e+002
3.240830e+002,2.294520e+002
3.250472e+002,2.318355e+002
3.260115e+002,2.325938e+002
3.269757e+002,2.300656e+002
3.279399e+002,2.270630e+002
3.289042e+002,2.260284e+002
3.298684e+002,2.263289e+002
3.308326e+002,2.273889e+002
3.317969e+002,2.287123e+002
3.327611e+002,2.302471e+002
3.337253e+002,2.307558e+002
3.346896e+002,2.300270e+002
3.356538e+002,2.290238e+002
3.366180e+002,2.291190e+002
3.375823e+002,2.309323e+002
3.385465e+002,2.324357e+002
3.395107e+002,2.343793e+002
3.404750e+002,2.364336e+002
3.414392e+002,2.379454e+002
3.424034e+002,2.380319e+002
3.433677e+002,2.378898e+002
3.443319e+002,2.377178e+002
3.452961e+002,2.375184e+002
3.462604e+002,2.374028e+002
3.472246e+002,2.377047e+002
3.481888e+002,2.386993e+002
3.491531e+002,2.401992e+002
3.501173e+002,2.420289e+002
3.510815e+002,2.437249e+002
3.520458e+002,2.445600e+002
3.530100e+002,2.435308e+002
3.539742e+002,2.436166e+002
3.549385e+002,2.460630e+002
3.559027e+002,2.496437e+002
3.568669e+002,2.521714e+002
3.578312e+002,2.537291e+002
3.587954e+002,2.551734e+002
3.597596e+002,2.546979e+002
3.607239e+002,2.528204e+002
3.616881e+002,2.507694e+002
3.626523e+002,2.500525e+002
3.636166e+002,2.501063e+002
3.645808e+002,2.508046e+002
3.655450e+002,2.517834e+002
3.665093e+002,2.522570e+002
3.674735e+002,2.509640e+002
3.684377e+002,2.483735e+002
3.694020e+002,2.480916e+002
3.703662e+002,2.502950e+002
3.713304e+002,2.536094e+002
3.722947e+002,2.556570e+002
3.732589e+002,2.551268e+002
3.742231e+002,2.545446e+002
3.751874e+002,2.541835e+002
3.761516e+002,2.542430e+002
3.771158e+002,2.550046e+002
3.780801e+002,2.572714e+002
3.790443e+002,2.583195e+002
3.800085e+002,2.561792e+002
3.809728e+002,2.527675e+002
3.819370e+002,2.507189e+002
3.829012e+002,2.527631e+002
3.838655e+002,2.567846e+002
3.848297e+002,2.588311e+002
3.857939e+002,2.588882e+002
3.867582e+002,2.576881e+002
3.877224e+002,2.564152e+002
3.886866e+002,2.560629e+002
3.896509e+002,2.570651e+002
3.906151e+002,2.593735e+002
3.915793e+002,2.619127e+002
3.925436e+002,2.633647e+002
3.935078e+002,2.627595e+002
3.944720e+002,2.612489e+002
3.954363e+002,2.596864e+002
3.964005e+002,2.589250e+002
3.973647e+002,2.594723e+002
3.983290e+002,2.612332e+002
3.992932e+002,2.625070e+002
4.002574e+002,2.625928e+002
4.012217e+002,2.619271e+002
4.021859e+002,2.612610e+002
4.031501e+002,2.614322e+002
4.041144e+002,2.627862e+002
4.050786e+002,2.636067e+002
4.060428e+002,2.637849e+002
4.070071e+002,2.642102e+002
4.079713e+002,2.656835e+002
4.089355e+002,2.681360e+002
4.098998e+002,2.699144e+002
4.108640e+002,2.716924e+002
4.118282e+002,2.731340e+002
4.127925e+002,2.738392e+002
4.137567e+002,2.734960e+002
4.147209e+002,2.723275e+002
4.156852e+002,2.699031e+002
4.166494e+002,2.678116e+002
4.176136e+002,2.678751e+002
4.185779e+002,2.713332e+002
4.195421e+002,2.772353e+002
4.205063e+002,2.812141e+002
4.214706e+002,2.828635e+002
4.224348e+002,2.832308e+002
4.233990e+002,2.831675e+002
4.243633e+002,2.828469e+002
4.253275e+002,2.829730e+002
4.262917e+002,2.862685e+002
4.272560e+002,2.893551e+002
4.282202e+002,2.896422e+002
4.291844e+002,2.861851e+002
4.301487e+002,2.839525e+002
4.311129e+002,2.848091e+002
4.320771e+002,2.862402e+002
4.330414e+002,2.873456e+002
4.340056e+002,2.878681e+002
4.349698e+002,2.882063e+002
4.359341e+002,2.891360e+002
4.368983e+002,2.904429e+002
4.378625e+002,2.918927e+002
4.388268e+002,2.933052e+002
4.397910e+002,2.945142e+002
4.407552e+002,2.950639e+002
4.417195e+002,2.943697e+002
4.426837e+002,2.932355e+002
4.436479e+002,2.921924e+002
4.446122e+002,2.916181e+002
4.455764e+002,2.916863e+002
4.465406e+002,2.933762e+002
4.475049e+002,2.950644e+002
4.484691e+002,2.954681e+002
4.494333e+002,2.949814e+002
4.503976e+002,2.952769e+002
4.513618e+002,2.987991e+002
4.523260e+002,3.018622e+002
4.532903e+002,3.022733e+002
4.542545e+002,3.003083e+002
4.552188e+002,2.970347e+002
4.561830e+002,2.938676e+002
4.571472e+002,2.919455e+002
4.581115e+002,2.917661e+002
4.590757e+002,2.932564e+002
4.600399e+002,2.955920e+002
4.610042e+002,2.975207e+002
4.619684e+002,2.978363e+002
4.629326e+002,2.981563e+002
4.638969e+002,2.996316e+002
4.648611e+002,3.008083e+002
4.658253e+002,2.999014e+002
4.667896e+002,2.955259e+002
4.677538e+002,2.919133e+002
4.687180e+002,2.919679e+002
4.696823e+002,2.939258e+002
4.706465e+002,2.959683e+002
4.716107e+002,2.967071e+002
4.725750e+002,2.962398e+002
4.735392e+002,2.950143e+002
4.745034e+002,2.933543e+002
4.754677e+002,2.926684e+002
4.764319e+002,2.941445e+002
4.773961e+002,2.981760e+002
4.783604e+002,3.006589e+002
4.793246e+002,3.008981e+002
4.802888e+002,3.003039e+002
4.812531e+002,2.993337e+002
4.822173e+002,2.980311e+002
4.831815e+002,2.962616e+002
4.841458e+002,2.937835e+002
4.851100e+002,2.913922e+002
4.860742e+002,2.889957e+002
4.870385e+002,2.868145e+002
4.880027e+002,2.854505e+002
4.889669e+002,2.866191e+002
4.899312e+002,2.890499e+002
4.908954e+002,2.904617e+002
4.918596e+002,2.900734e+002
4.928239e+002,2.879882e+002
4.937881e+002,2.851732e+002
4.947523e+002,2.816405e+002
4.957166e+002,2.783887e+002
4.966808e+002,2.761862e+002
4.976450e+002,2.752719e+002
4.986093e+002,2.752842e+002
4.995735e+002,2.747889e+002
5.005377e+002,2.748414e+002
5.015020e+002,2.766594e+002
5.024662e+002,2.789984e+002
5.034304e+002,2.808375e+002
5.043947e+002,2.818674e+002
5.053589e+002,2.828832e+002
5.063231e+002,2.840621e+002
5.072874e+002,2.851035e+002
5.082516e+002,2.857048e+002
5.092158e+002,2.857374e+002
5.101801e+002,2.853929e+002
5.111443e+002,2.862520e+002
5.121085e+002,2.880657e+002
5.130728e+002,2.899982e+002
5.140370e+002,2.915911e+002
5.150012e+002,2.928301e+002
5.159655e+002,2.944194e+002
5.169297e+002,2.977734e+002
5.178939e+002,3.005220e+002
5.188582e+002,3.013574e+002
5.198224e+002,3.007770e+002
5.207866e+002,3.008970e+002
5.217509e+002,3.036611e+002
5.227151e+002,3.073142e+002
5.236793e+002,3.108907e+002
5.246436e+002,3.140733e+002
5.256078e+002,3.165593e+002
5.265720e+002,3.179111e+002
5.275363e+002,3.184833e+002
5.285005e+002,3.215259e+002
5.294647e+002,3.278533e+002
5.304290e+002,3.350462e+002
5.313932e+002,3.397551e+002
5.323574e+002,3.398226e+002
5.333217e+002,3.422422e+002
5.342859e+002,3.483050e+002
5.352501e+002,3.552623e+002
5.362144e+002,3.616987e+002
5.371786e+002,3.674896e+002
5.381428e+002,3.727250e+002
5.391071e+002,3.758889e+002
5.400713e+002,3.786055e+002
5.410355e+002,3.823680e+002
5.419998e+002,3.875364e+002
5.429640e+002,3.930148e+002
5.439282e+002,3.962042e+002
5.448925e+002,3.983530e+002
5.458567e+002,4.021877e+002
5.468209e+002,4.086155e+002
5.477852e+002,4.163818e+002
5.487494e+002,4.218202e+002
5.497136e+002,4.218140e+002
5.506779e+002,4.219164e+002
5.516421e+002,4.240290e+002
5.526063e+002,4.267068e+002
5.535706e+002,4.273511e+002
5.545348e+002,4.239790e+002
5.554990e+002,4.211300e+002
5.564633e+002,4.214390e+002
5.574275e+002,4.231212e+002
5.583917e+002,4.241825e+002
5.593560e+002,4.233293e+002
5.603202e+002,4.214133e+002
5.612844e+002,4.217124e+002
5.622487e+002,4.236208e+002
5.632129e+002,4.243189e+002
5.641771e+002,4.218335e+002
5.651414e+002,4.160588e+002
5.661056e+002,4.116418e+002
5.670698e+002,4.103108e+002
5.680341e+002,4.095462e+002
5.689983e+002,4.080911e+002
5.699625e+002,4.058298e+002
5.709268e+002,4.037245e+002
5.718910e+002,4.036484e+002
5.728552e+002,4.029134e+002
5.738195e+002,4.003755e+002
5.747837e+002,3.966318e+002
5.757479e+002,3.922444e+002
5.767122e+002,3.872680e+002
5.776764e+002,3.818020e+002
5.786406e+002,3.784277e+002
5.796049e+002,3.771527e+002
5.805691e+002,3.765707e+002
5.815333e+002,3.758028e+002
5.824976e+002,3.752738e+002
5.834618e+002,3.740046e+002
5.844260e+002,3.710747e+002
5.853903e+002,3.682261e+002
5.863545e+002,3.659803e+002
5.873187e+002,3.638958e+002
5.882830e+002,3.605505e+002
5.892472e+002,3.557314e+002
5.902114e+002,3.511841e+002
5.911757e+002,3.468477e+002
5.921399e+002,3.432654e+002
5.931041e+002,3.413785e+002
5.940684e+002,3.422562e+002
5.950326e+002,3.438939e+002
5.959968e+002,3.425887e+002
5.969611e+002,3.391258e+002
5.979253e+002,3.348198e+002
5.988895e+002,3.306394e+002
5.998538e+002,3.263357e+002
6.008180e+002,3.225272e+002
6.017822e+002,3.186357e+002
6.027465e+002,3.150422e+002
6.037107e+002,3.122640e+002
6.046749e+002,3.105743e+002
6.056392e+002,3.095517e+002
6.066034e+002,3.093254e+002
6.075676e+002,3.078992e+002
6.085319e+002,3.036863e+002
6.094961e+002,2.972744e+002
6.104603e+002,2.906947e+002
6.114246e+002,2.868444e+002
6.123888e+002,2.851384e+002
6.133530e+002,2.818380e+002
6.143173e+002,2.770067e+002
6.152815e+002,2.720141e+002
6.162457e+002,2.685357e+002
6.172100e+002,2.674732e+002
6.181742e+002,2.660430e+002
6.191384e+002,2.629654e+002
6.201027e+002,2.595595e+002
6.210669e+002,2.568271e+002
6.220311e+002,2.550189e+002
6.229954e+002,2.531512e+002
6.239596e+002,2.498170e+002
6.249238e+002,2.458690e+002
6.258881e+002,2.423699e+002
6.268523e+002,2.396506e+002
6.278165e+002,2.372642e+002
6.287808e+002,2.339942e+002
6.297450e+002,2.297935e+002
6.307092e+002,2.274637e+002
6.316735e+002,2.271718e+002
6.326377e+002,2.273072e+002
6.336019e+002,2.262512e+002
6.345662e+002,2.240586e+002
6.355304e+002,2.219954e+002
6.364946e+002,2.197969e+002
6.374589e+002,2.176431e+002
6.384231e+002,2.157693e+002
6.393873e+002,2.141189e+002
6.403516e+002,2.120407e+002
6.413158e+002,2.081696e+002
6.422800e+002,2.036371e+002
6.432443e+002,1.995411e+002
6.442085e+002,1.962479e+002
6.451727e+002,1.937805e+002
6.461370e+002,1.919532e+002
6.471012e+002,1.904791e+002
6.480654e+002,1.879581e+002
6.490297e+002,1.843574e+002
6.499939e+002,1.808136e+002
6.509581e+002,1.783052e+002
6.519224e+002,1.768542e+002
6.528866e+002,1.752610e+002
6.538508e+002,1.728596e+002
6.548151e+002,1.701436e+002
6.557793e+002,1.677458e+002
6.567435e+002,1.657906e+002
6.577078e+002,1.637715e+002
6.586720e+002,1.609781e+002
6.596362e+002,1.578162e+002
6.606005e+002,1.549503e+002
6.615647e+002,1.527507e+002
6.625289e+002,1.512194e+002
6.634932e+002,1.499682e+002
6.644574e+002,1.481418e+002
6.654216e+002,1.455504e+002
6.663859e+002,1.424843e+002
6.673501e+002,1.391072e+002
6.683143e+002,1.355102e+002
6.692786e+002,1.321555e+002
6.702428e+002,1.307218e+002
6.712070e+002,1.331341e+002
6.721713e+002,1.346817e+002
6.731355e+002,1.332968e+002
6.740997e+002,1.296210e+002
6.750640e+002,1.255828e+002
6.760282e+002,1.226802e+002
6.769924e+002,1.210408e+002
6.779567e+002,1.208377e+002
6.789209e+002,1.214986e+002
6.798851e+002,1.213419e+002
6.808494e+002,1.188398e+002
6.818136e+002,1.136750e+002
6.827778e+002,1.086436e+002
6.837421e+002,1.041952e+002
6.847063e+002,1.014971e+002
6.856705e+002,1.016358e+002
6.866348e+002,1.036208e+002
6.875990e+002,1.044279e+002
6.885632e+002,1.025377e+002
6.895275e+002,9.887482e+001
6.904917e+002,9.379767e+001
6.914559e+002,8.920959e+001
6.924202e+002,8.694849e+001
6.933844e+002,8.768445e+001
6.943486e+002,8.948969e+001
6.953129e+002,8.902478e+001
6.962771e+002,8.671741e+001
6.972413e+002,8.368365e+001
6.982056e+002,8.073291e+001
6.991698e+002,7.845160e+001
7.001340e+002,7.743207e+001
7.010983e+002,7.878613e+001
7.020625e+002,7.890289e+001
7.030267e+002,7.626917e+001
7.039910e+002,7.258655e+001
7.049552e+002,7.047827e+001
7.059194e+002,7.149750e+001
7.068837e+002,7.193457e+001
7.078479e+002,6.829840e+001
7.088121e+002,6.407410e+001
7.097764e+002,6.172345e+001
7.107406e+002,6.165247e+001
7.117048e+002,6.233063e+001
7.126691e+002,6.177179e+001
7.136333e+002,6.023602e+001
7.145975e+002,5.852216e+001
7.155618e+002,5.674695e+001
7.165260e+002,5.514899e+001
7.174902e+002,5.386615e+001
7.184545e+002,5.262476e+001
7.194187e+002,5.186121e+001
7.203829e+002,5.159570e+001
7.213472e+002,5.187463e+001
7.223114e+002,5.354175e+001
7.232756e+002,5.610614e+001
7.242399e+002,5.694495e+001
7.252041e+002,5.234552e+001
7.261683e+002,4.731464e+001
7.271326e+002,4.589215e+001
7.280968e+002,4.761951e+001
7.290610e+002,5.081848e+001
7.300253e+002,5.382397e+001
7.309895e+002,5.594824e+001
7.319537e+002,5.457800e+001
7.329180e+002,4.954858e+001
7.338822e+002,4.491455e+001
7.348464e+002,4.292676e+001
7.358107e+002,4.350806e+001
7.367749e+002,4.442670e+001
7.377391e+002,4.489392e+001
7.387034e+002,4.580084e+001
7.396676e+002,4.808759e+001
7.406318e+002,5.019940e+001
7.415961e+002,4.992096e+001
7.425603e+002,4.619104e+001
7.435245e+002,4.234070e+001
7.444888e+002,4.323346e+001
7.454530e+002,4.681580e+001
7.464172e+002,5.125946e+001
7.473815e+002,5.575989e+001
7.483457e+002,5.953833e+001
7.493099e+002,6.071234e+001
7.502742e+002,5.767706e+001
7.512384e+002,5.536749e+001
7.522026e+002,5.345007e+001
7.531669e+002,5.263037e+001
7.541311e+002,5.395831e+001
7.550953e+002,5.776141e+001
7.560596e+002,6.123297e+001
7.570238e+002,6.336938e+001
7.579880e+002,6.445160e+001
7.589523e+002,6.391681e+001
7.599165e+002,6.240845e+001
7.608807e+002,6.133630e+001
7.618450e+002,6.208667e+001
7.628092e+002,6.459515e+001
7.637734e+002,6.780627e+001
7.647377e+002,7.167432e+001
7.657019e+002,7.531525e+001
7.666661e+002,7.815961e+001
7.676304e+002,8.003265e+001
7.685946e+002,8.020752e+001
7.695588e+002,7.776984e+001
7.705231e+002,7.570276e+001
7.714873e+002,7.353278e+001
7.724515e+002,7.196991e+001
7.734158e+002,7.250922e+001
7.743800e+002,7.636182e+001
7.753442e+002,8.015881e+001
7.763085e+002,8.102533e+001
7.772727e+002,8.086713e+001
7.782369e+002,8.137982e+001
7.792012e+002,8.278778e+001
7.801654e+002,8.384259e+001
7.811296e+002,8.257648e+001
7.820939e+002,7.874048e+001
7.830581e+002,7.620166e+001
7.840223e+002,7.538141e+001
7.849866e+002,7.594159e+001
7.859508e+002,7.762109e+001
7.869150e+002,8.025183e+001
7.878793e+002,8.156079e+001
7.888435e+002,8.099304e+001
7.898077e+002,7.978375e+001
7.907720e+002,7.802014e+001
7.917362e+002,7.643781e+001
7.927004e+002,7.620972e+001
7.936647e+002,7.828064e+001
7.946289e+002,8.063739e+001
7.955931e+002,7.979437e+001
7.965574e+002,7.646869e+001
7.975216e+002,7.297064e+001
7.984858e+002,7.096100e+001
7.994501e+002,7.075916e+001
8.004143e+002,7.153351e+001
8.013785e+002,7.394464e+001
8.023428e+002,7.509418e+001
8.033070e+002,7.385199e+001
8.042712e+002,7.167505e+001
8.052355e+002,7.031757e+001
8.061997e+002,7.028503e+001
8.071639e+002,7.019635e+001
8.081282e+002,6.921094e+001
8.090924e+002,6.825677e+001
8.100566e+002,6.862183e+001
8.110209e+002,7.006757e+001
8.119851e+002,7.072699e+001
8.129493e+002,6.786304e+001
8.139136e+002,6.106140e+001
8.148778e+002,5.628357e+001
8.158420e+002,5.438043e+001
8.168063e+002,5.324225e+001
8.177705e+002,5.160950e+001
8.187347e+002,4.950592e+001
8.196990e+002,4.758386e+001
8.206632e+002,4.562762e+001
8.216274e+002,4.355438e+001
8.225917e+002,4.224396e+001
8.235559e+002,4.152533e+001
8.245201e+002,4.059326e+001
8.254844e+002,3.869324e+001
8.264486e+002,3.623895e+001
8.274128e+002,3.459265e+001
8.283771e+002,3.368457e+001
8.293413e+002,3.313019e+001
8.303055e+002,3.268561e+001
8.312698e+002,3.208551e+001
8.322340e+002,3.104755e+001
8.331982e+002,2.949615e+001
8.341625e+002,2.705450e+001
8.351267e+002,2.265778e+001
8.360909e+002,1.973749e+001
8.370552e+002,2.067072e+001
8.380194e+002,2.438293e+001
8.389836e+002,2.651727e+001
8.399479e+002,2.468237e+001
8.409121e+002,2.259302e+001
8.418763e+002,2.201880e+001
8.428406e+002,2.227478e+001
8.438048e+002,2.289172e+001
8.447690e+002,2.367841e+001
8.457333e+002,2.431567e+001
8.466975e+002,2.289404e+001
8.476617e+002,1.913544e+001
8.486260e+002,1.732141e+001
8.495902e+002,1.846771e+001
8.505544e+002,2.055267e+001
8.515187e+002,2.128455e+001
8.524829e+002,2.067139e+001
8.534471e+002,1.980255e+001
8.544114e+002,1.994861e+001
8.553756e+002,1.939410e+001
8.563398e+002,1.621912e+001
8.573041e+002,1.151477e+001
8.582683e+002,8.053589e+000
8.592325e+002,7.966370e+000
8.601968e+002,9.898132e+000
8.611610e+002,1.162451e+001
8.621252e+002,1.307074e+001
8.630895e+002,1.396857e+001
8.640537e+002,1.439697e+001
8.650179e+002,1.460223e+001
8.659822e+002,1.448297e+001
8.669464e+002,1.209583e+001
8.679106e+002,1.095367e+001
8.688749e+002,1.275342e+001
8.698391e+002,1.406799e+001
8.708033e+002,1.200146e+001
8.717676e+002,7.084778e+000
8.727318e+002,4.128845e+000
8.736960e+002,6.950867e+000
8.746603e+002,1.084015e+001
8.756245e+002,1.188623e+001
8.765887e+002,1.057953e+001
8.775530e+002,9.373535e+000
8.785172e+002,1.044373e+001
8.794814e+002,1.354102e+001
8.804457e+002,1.463434e+001
8.814099e+002,1.241827e+001
8.823741e+002,1.099225e+001
8.833384e+002,1.109119e+001
8.843026e+002,1.174994e+001
8.852668e+002,1.207239e+001
8.862311e+002,1.246741e+001
8.871953e+002,1.228766e+001
8.881595e+002,1.045313e+001
8.891238e+002,9.352600e+000
8.900880e+002,1.043140e+001
8.910522e+002,1.313251e+001
8.920165e+002,1.573505e+001
8.929807e+002,1.681427e+001
8.939449e+002,1.685577e+001
8.949092e+002,1.785931e+001
8.958734e+002,1.971277e+001
8.968376e+002,2.087006e+001
8.978019e+002,2.014063e+001
8.987661e+002,1.812994e+001
8.997303e+002,1.716248e+001
9.006946e+002,1.815723e+001
9.016588e+002,1.882507e+001
9.026230e+002,1.968420e+001
9.035873e+002,2.036108e+001
9.045515e+002,1.981207e+001
9.055157e+002,1.828308e+001
9.064800e+002,1.777271e+001
9.074442e+002,2.016504e+001
9.084084e+002,2.363617e+001
9.093727e+002,2.584308e+001
9.103369e+002,2.685675e+001
9.113011e+002,2.697070e+001
9.122654e+002,2.629474e+001
9.132296e+002,2.522528e+001
9.141938e+002,2.558429e+001
9.151581e+002,2.954724e+001
9.161223e+002,3.235956e+001
9.170865e+002,3.293488e+001
9.180508e+002,3.341962e+001
9.190150e+002,3.551593e+001
9.199792e+002,3.913232e+001
9.209435e+002,4.261047e+001
9.219077e+002,4.536035e+001
9.228719e+002,4.697308e+001
9.238362e+002,4.778534e+001
9.248004e+002,4.821667e+001
9.257646e+002,4.807062e+001
9.267289e+002,4.703802e+001
9.276931e+002,4.559167e+001
9.286573e+002,4.615259e+001
9.296216e+002,4.868915e+001
9.305858e+002,5.198016e+001
9.315500e+002,5.791071e+001
9.325143e+002,6.390118e+001
9.334785e+002,6.633484e+001
9.344427e+002,6.468134e+001
9.354070e+002,6.436371e+001
9.363712e+002,6.889471e+001
9.373354e+002,7.323651e+001
9.382997e+002,7.542841e+001
9.392639e+002,7.631512e+001
9.402281e+002,7.737469e+001
9.411924e+002,7.937274e+001
9.421566e+002,8.189453e+001
9.431208e+002,8.444604e+001
9.440851e+002,8.666394e+001
9.450493e+002,8.767700e+001
9.460135e+002,8.735553e+001
9.469778e+002,8.709131e+001
9.479420e+002,8.885309e+001
9.489063e+002,9.314215e+001
9.498705e+002,9.516321e+001
9.508347e+002,9.149774e+001
9.517990e+002,8.860535e+001
9.527632e+002,8.883154e+001
9.537274e+002,9.091296e+001
9.546917e+002,9.278668e+001
9.556559e+002,9.355328e+001
9.566201e+002,9.382800e+001
9.575844e+002,9.417847e+001
9.585486e+002,9.443457e+001
9.595128e+002,9.487421e+001
9.604771e+002,9.588971e+001
9.614413e+002,9.702148e+001
9.624055e+002,9.725049e+001
9.633698e+002,9.611884e+001
9.643340e+002,9.616058e+001
9.652982e+002,9.751141e+001
9.662625e+002,9.833148e+001
9.672267e+002,9.915179e+001
9.681909e+002,1.006472e+002
9.691552e+002,1.029362e+002
9.701194e+002,1.053605e+002
9.710836e+002,1.066830e+002
9.720479e+002,1.047924e+002
9.730121e+002,1.024149e+002
9.739763e+002,1.034031e+002
9.749406e+002,1.082173e+002
9.759048e+002,1.141130e+002
9.768690e+002,1.180374e+002
9.778333e+002,1.197073e+002
9.787975e+002,1.219358e+002
9.797617e+002,1.249400e+002
9.807260e+002,1.269106e+002
9.816902e+002,1.276652e+002
9.826544e+002,1.287031e+002
9.836187e+002,1.314340e+002
9.845829e+002,1.359058e+002
9.855471e+002,1.404207e+002
9.865114e+002,1.442640e+002
9.874756e+002,1.465620e+002
9.884398e+002,1.464152e+002
9.894041e+002,1.448289e+002
9.903683e+002,1.437217e+002
9.913325e+002,1.442780e+002
9.922968e+002,1.458917e+002
9.932610e+002,1.468334e+002
9.942252e+002,1.478531e+002
9.951895e+002,1.477487e+002
9.961537e+002,1.444290e+002
9.971179e+002,1.407682e+002
9.980822e+002,1.399066e+002
9.990464e+002,1.420327e+002
1.000011e+003,1.438871e+002
1.000975e+003,1.429400e+002
1.001939e+003,1.417964e+002
1.002903e+003,1.425001e+002
1.003868e+003,1.439667e+002
1.004832e+003,1.449194e+002
1.005796e+003,1.451094e+002
1.006760e+003,1.452981e+002
1.007724e+003,1.460674e+002
1.008689e+003,1.470155e+002
1.009653e+003,1.481709e+002
1.010617e+003,1.491327e+002
1.011581e+003,1.500256e+002
1.012546e+003,1.515303e+002
1.013510e+003,1.537106e+002
1.014474e+003,1.554371e+002
1.015438e+003,1.557734e+002
1.016403e+003,1.573774e+002
1.017367e+003,1.615407e+002
1.018331e+003,1.657501e+002
1.019295e+003,1.678119e+002
1.020260e+003,1.682501e+002
1.021224e+003,1.698265e+002
1.022188e+003,1.751252e+002
1.023152e+003,1.830521e+002
1.024116e+003,1.883599e+002
1.025081e+003,1.909834e+002
1.026045e+003,1.926532e+002
1.027009e+003,1.933779e+002
1.027973e+003,1.938051e+002
1.028938e+003,1.951416e+002
1.029902e+003,1.976139e+002
1.030866e+003,2.010443e+002
1.031830e+003,2.064412e+002
1.032795e+003,2.118231e+002
1.033759e+003,2.161986e+002
1.034723e+003,2.193799e+002
1.035687e+003,2.211657e+002
1.036651e+003,2.217230e+002
1.037616e+003,2.229153e+002
1.038580e+003,2.283583e+002
1.039544e+003,2.367816e+002
1.040508e+003,2.431801e+002
1.041473e+003,2.473970e+002
1.042437e+003,2.507258e+002
1.043401e+003,2.537274e+002
1.044365e+003,2.562720e+002
1.045330e+003,2.592502e+002
1.046294e+003,2.619374e+002
1.047258e+003,2.650034e+002
1.048222e+003,2.701826e+002
1.049187e+003,2.756930e+002
1.050151e+003,2.797095e+002
1.051115e+003,2.820316e+002
1.052079e+003,2.840483e+002
1.053043e+003,2.870833e+002
1.054008e+003,2.914257e+002
1.054972e+003,2.963598e+002
1.055936e+003,3.005981e+002
1.056900e+003,3.032736e+002
1.057865e+003,3.042401e+002
1.058829e+003,3.051812e+002
1.059793e+003,3.087587e+002
1.060757e+003,3.159333e+002
1.061722e+003,3.232395e+002
1.062686e+003,3.289501e+002
1.063650e+003,3.341425e+002
1.064614e+003,3.391192e+002
1.065578e+003,3.439629e+002
1.066543e+003,3.489902e+002
1.067507e+003,3.547368e+002
1.068471e+003,3.613688e+002
1.069435e+003,3.687610e+002
1.070400e+003,3.756887e+002
1.071364e+003,3.794123e+002
1.072328e+003,3.789440e+002
1.073292e+003,3.784016e+002
1.074257e+003,3.818470e+002
1.075221e+003,3.893512e+002
1.076185e+003,3.972353e+002
1.077149e+003,4.065134e+002
1.078114e+003,4.138045e+002
1.079078e+003,4.177118e+002
1.080042e+003,4.205643e+002
1.081006e+003,4.229446e+002
1.081970e+003,4.250123e+002
1.082935e+003,4.276346e+002
1.083899e+003,4.321105e+002
1.084863e+003,4.378986e+002
1.085827e+003,4.422099e+002
1.086792e+003,4.445619e+002
1.087756e+003,4.459003e+002
1.088720e+003,4.467825e+002
1.089684e+003,4.478287e+002
1.090649e+003,4.499477e+002
1.091613e+003,4.534916e+002
1.092577e+003,4.560983e+002
1.093541e+003,4.541862e+002
1.094505e+003,4.531185e+002
1.095470e+003,4.565512e+002
1.096434e+003,4.610623e+002
1.097398e+003,4.631357e+002
1.098362e+003,4.618892e+002
1.099327e+003,4.584117e+002
1.100291e+003,4.529979e+002
1.101255e+003,4.471733e+002
1.102219e+003,4.458744e+002
1.103184e+003,4.481077e+002
1.104148e+003,4.484927e+002
1.105112e+003,4.452961e+002
1.106076e+003,4.399875e+002
1.107041e+003,4.339727e+002
1.108005e+003,4.265825e+002
1.108969e+003,4.211146e+002
1.109933e+003,4.189702e+002
1.110897e+003,4.160443e+002
1.111862e+003,4.120699e+002
1.112826e+003,4.073545e+002
1.113790e+003,4.017686e+002
1.114754e+003,3.953369e+002
1.115719e+003,3.890035e+002
1.116683e+003,3.838396e+002
1.117647e+003,3.791804e+002
1.118611e+003,3.737148e+002
1.119576e+003,3.684274e+002
1.120540e+003,3.635964e+002
1.121504e+003,3.585313e+002
1.122468e+003,3.525828e+002
1.123432e+003,3.454960e+002
1.124397e+003,3.370487e+002
1.125361e+003,3.285411e+002
1.126325e+003,3.217296e+002
1.127289e+003,3.162309e+002
1.128254e+003,3.109490e+002
1.129218e+003,3.057858e+002
1.130182e+003,3.017178e+002
1.131146e+003,2.991453e+002
1.132111e+003,2.962535e+002
1.133075e+003,2.896441e+002
1.134039e+003,2.796151e+002
1.135003e+003,2.728220e+002
1.135968e+003,2.697092e+002
1.136932e+003,2.673354e+002
1.137896e+003,2.651146e+002
1.138860e+003,2.627096e+002
1.139824e+003,2.590403e+002
1.140789e+003,2.541086e+002
1.141753e+003,2.486624e+002
1.142717e+003,2.406675e+002
1.143681e+003,2.321938e+002
1.144646e+003,2.250939e+002
1.145610e+003,2.194444e+002
1.146574e+003,2.145082e+002
1.147538e+003,2.100461e+002
1.148503e+003,2.067164e+002
1.149467e+003,2.054020e+002
1.150431e+003,2.057321e+002
1.151395e+003,2.047523e+002
1.152359e+003,2.031150e+002
1.153324e+003,1.999296e+002
1.154288e+003,1.931116e+002
1.155252e+003,1.847686e+002
1.156216e+003,1.795763e+002
1.157181e+003,1.787896e+002
1.158145e+003,1.782339e+002
1.159109e+003,1.762249e+002
1.160073e+003,1.728431e+002
1.161038e+003,1.666254e+002
1.162002e+003,1.593663e+002
1.162966e+003,1.548873e+002
1.163930e+003,1.549004e+002
1.164895e+003,1.565876e+002
1.165859e+003,1.548351e+002
1.166823e+003,1.495724e+002
1.167787e+003,1.446729e+002
1.168751e+003,1.383434e+002
1.169716e+003,1.327396e+002
1.170680e+003,1.289538e+002
1.171644e+003,1.261834e+002
1.172608e+003,1.239559e+002
1.173573e+003,1.226988e+002
1.174537e+003,1.215978e+002
1.175501e+003,1.187811e+002
1.176465e+003,1.149014e+002
1.177430e+003,1.114885e+002
1.178394e+003,1.087166e+002
1.179358e+003,1.064298e+002
1.180322e+003,1.042656e+002
1.181286e+003,1.015760e+002
1.182251e+003,9.769092e+001
1.183215e+003,9.279547e+001
1.184179e+003,8.892175e+001
1.185143e+003,8.708801e+001
1.186108e+003,8.554730e+001
1.187072e+003,8.341284e+001
1.188036e+003,8.088177e+001
1.189000e+003,7.850159e+001
1.189965e+003,7.649512e+001
1.190929e+003,7.453790e+001
1.191893e+003,7.208887e+001
1.192857e+003,6.948633e+001
1.193822e+003,6.792249e+001
1.194786e+003,6.724384e+001
1.195750e+003,6.651398e+001
1.196714e+003,6.516003e+001
1.197678e+003,6.311206e+001
1.198643e+003,6.047388e+001
1.199607e+003,5.753699e+001
1.200571e+003,5.528040e+001
1.201535e+003,5.506207e+001
1.202500e+003,5.432831e+001
1.203464e+003,5.088214e+001
1.204428e+003,4.692352e+001
1.205392e+003,4.420972e+001
1.206357e+003,4.256683e+001
1.207321e+003,4.112433e+001
1.208285e+003,3.953571e+001
1.209249e+003,3.765503e+001
1.210214e+003,3.468127e+001
1.211178e+003,3.123645e+001
1.212142e+003,2.965826e+001
1.213106e+003,2.978101e+001
1.214070e+003,3.060547e+001
1.215035e+003,3.208026e+001
1.215999e+003,3.352960e+001
1.216963e+003,3.363824e+001
1.217927e+003,3.259314e+001
1.218892e+003,3.076825e+001
1.219856e+003,2.756195e+001
1.220820e+003,2.436450e+001
1.221784e+003,2.118774e+001
1.222749e+003,1.867035e+001
1.223713e+003,1.761505e+001
1.224677e+003,1.807416e+001
1.225641e+003,1.935938e+001
1.226605e+003,2.088788e+001
1.227570e+003,2.257806e+001
1.228534e+003,2.189648e+001
1.229498e+003,1.765204e+001
1.230462e+003,1.509863e+001
1.231427e+003,1.622314e+001
1.232391e+003,1.759222e+001
1.233355e+003,1.587720e+001
1.234319e+003,1.178070e+001
1.235284e+003,8.907959e+000
1.236248e+003,8.644653e+000
1.237212e+003,9.181702e+000
1.238176e+003,8.640747e+000
1.239141e+003,7.712036e+000
1.240105e+003,7.637085e+000
1.241069e+003,8.589172e+000
1.242033e+003,9.789429e+000
1.242997e+003,1.057336e+001
1.243962e+003,1.090765e+001
1.244926e+003,1.092255e+001
1.245890e+003,1.075061e+001
1.246854e+003,1.059479e+001
1.247819e+003,1.017499e+001
1.248783e+003,9.767273e+000
1.249747e+003,9.379150e+000
1.250711e+003,9.237061e+000
1.251676e+003,9.695313e+000
1.252640e+003,1.057288e+001
1.253604e+003,1.090631e+001
1.254568e+003,1.006610e+001
1.255532e+003,8.902039e+000
1.256497e+003,8.759460e+000
1.257461e+003,9.413818e+000
1.258425e+003,9.864990e+000
1.259389e+003,9.342896e+000
1.260354e+003,8.878418e+000
1.261318e+003,1.031665e+001
1.262282e+003,1.339209e+001
1.263246e+003,1.450812e+001
1.264211e+003,1.232288e+001
1.265175e+003,1.016229e+001
1.266139e+003,8.906921e+000
1.267103e+003,8.580017e+000
1.268068e+003,9.882568e+000
1.269032e+003,1.165326e+001
1.269996e+003,1.179065e+001
1.270960e+003,9.455322e+000
1.271924e+003,5.978333e+000
1.272889e+003,3.027710e+000
1.273853e+003,3.270264e-001
1.274817e+003,9.387207e-002
1.275781e+003,3.291016e+000
1.276746e+003,5.055359e+000
1.277710e+003,4.806885e+000
1.278674e+003,3.821899e+000
1.279638e+003,2.385193e+000
1.280603e+003,6.678467e-001
1.281567e+003,4.774170e-001
1.282531e+003,3.024536e+000
1.283495e+003,5.583069e+000
1.284459e+003,4.655090e+000
1.285424e+003,2.242126e+000
1.286388e+003,1.670898e+000
1.287352e+003,3.498840e+000
1.288316e+003,5.658936e+000
1.289281e+003,6.649597e+000
1.290245e+003,6.917664e+000
1.291209e+003,7.225281e+000
1.292173e+003,6.866882e+000
1.293138e+003,6.554260e+000
1.294102e+003,7.173279e+000
1.295066e+003,7.648315e+000
1.296030e+003,7.600952e+000
1.296995e+003,7.264587e+000
1.297959e+003,6.671570e+000
1.298923e+003,6.023376e+000
1.299887e+003,6.008057e+000
1.300851e+003,7.076904e+000
1.301816e+003,8.004028e+000
1.302780e+003,6.460876e+000
1.303744e+003,3.402954e+000
1.304708e+003,1.496094e+000
1.305673e+003,3.953247e-001
1.306637e+003,6.854858e-001
1.307601e+003,3.173889e+000
1.308565e+003,6.289185e+000
1.309530e+003,7.355835e+000
1.310494e+003,6.484131e+000
1.311458e+003,6.078552e+000
1.312422e+003,6.761719e+000
1.313386e+003,8.091187e+000
1.314351e+003,1.051080e+001
1.315315e+003,1.297076e+001
1.316279e+003,1.361096e+001
1.317243e+003,1.207062e+001
1.318208e+003,9.892151e+000
1.319172e+003,8.641418e+000
1.320136e+003,8.094788e+000
1.321100e+003,7.385437e+000
1.322065e+003,6.317200e+000
1.323029e+003,6.963501e+000
1.323993e+003,1.090521e+001
1.324957e+003,1.393542e+001
1.325922e+003,1.227332e+001
1.326886e+003,8.146362e+000
1.327850e+003,6.542725e+000
1.328814e+003,8.981506e+000
1.329778e+003,1.144952e+001
1.330743e+003,9.730042e+000
1.331707e+003,5.791199e+000
1.332671e+003,5.628540e+000
1.333635e+003,8.457825e+000
1.334600e+003,1.091028e+001
1.335564e+003,1.286572e+001
1.336528e+003,1.348798e+001
1.337492e+003,1.170398e+001
1.338457e+003,8.599487e+000
1.339421e+003,6.766663e+000
1.340385e+003,6.673401e+000
1.341349e+003,6.848938e+000
1.342313e+003,5.217224e+000
1.343278e+003,4.384705e+000
1.344242e+003,8.006714e+000
1.345206e+003,1.328906e+001
1.346170e+003,1.504016e+001
1.347135e+003,1.228748e+001
1.348099e+003,9.018677e+000
1.349063e+003,9.171204e+000
1.350027e+003,1.194745e+001
1.350992e+003,1.330994e+001
1.351956e+003,1.197412e+001
1.352920e+003,1.133813e+001
1.353884e+003,1.304315e+001
1.354849e+003,1.417230e+001
1.355813e+003,1.296979e+001
1.356777e+003,1.109247e+001
1.357741e+003,1.079504e+001
1.358705e+003,1.198169e+001
1.359670e+003,1.202502e+001
1.360634e+003,8.732422e+000
1.361598e+003,4.328247e+000
1.362562e+003,4.838745e+000
1.363527e+003,1.076465e+001
1.364491e+003,1.476263e+001
1.365455e+003,1.479315e+001
1.366419e+003,1.306720e+001
1.367384e+003,1.049860e+001
1.368348e+003,7.833252e+000
1.369312e+003,6.173401e+000
1.370276e+003,5.972534e+000
1.371240e+003,7.000671e+000
1.372205e+003,8.588684e+000
1.373169e+003,1.026044e+001
1.374133e+003,1.288922e+001
1.375097e+003,1.501038e+001
1.376062e+003,1.448730e+001
1.377026e+003,1.168689e+001
1.377990e+003,9.319458e+000
1.378954e+003,9.493774e+000
1.379919e+003,1.132611e+001
1.380883e+003,1.198840e+001
1.381847e+003,1.052686e+001
1.382811e+003,9.527039e+000
1.383776e+003,8.410522e+000
1.384740e+003,7.912415e+000
1.385704e+003,1.030316e+001
1.386668e+003,1.318524e+001
1.387632e+003,1.354437e+001
1.388597e+003,1.208539e+001
1.389561e+003,1.196686e+001
1.390525e+003,1.460565e+001
1.391489e+003,1.762994e+001
1.392454e+003,1.758203e+001
1.393418e+003,1.454626e+001
1.394382e+003,1.238580e+001
1.395346e+003,1.133667e+001
1.396311e+003,1.040942e+001
1.397275e+003,1.020667e+001
1.398239e+003,1.113739e+001
1.399203e+003,1.268115e+001
1.400167e+003,1.433771e+001
1.401132e+003,1.632794e+001
1.402096e+003,1.871362e+001
1.403060e+003,2.026892e+001
1.404024e+003,2.090930e+001
1.404989e+003,2.138727e+001
1.405953e+003,2.098444e+001
1.406917e+003,1.925134e+001
1.407881e+003,1.740729e+001
1.408846e+003,1.623004e+001
1.409810e+003,1.499622e+001
1.410774e+003,1.255627e+001
1.411738e+003,1.014600e+001
1.412703e+003,1.070734e+001
1.413667e+003,1.389532e+001
1.414631e+003,1.643005e+001
1.415595e+003,1.929553e+001
1.416559e+003,1.991010e+001
1.417524e+003,1.505444e+001
1.418488e+003,9.682556e+000
1.419452e+003,9.130615e+000
1.420416e+003,1.261444e+001
1.421381e+003,1.562195e+001
1.422345e+003,1.555536e+001
1.423309e+003,1.362372e+001
1.424273e+003,1.190991e+001
1.425238e+003,1.070026e+001
1.426202e+003,1.071454e+001
1.427166e+003,1.157922e+001
1.428130e+003,1.323047e+001
1.429094e+003,1.698663e+001
1.430059e+003,1.982983e+001
1.431023e+003,1.985583e+001
1.431987e+003,1.824963e+001
1.432951e+003,1.653033e+001
1.433916e+003,1.514014e+001
1.434880e+003,1.456940e+001
1.435844e+003,1.554590e+001
1.436808e+003,1.737762e+001
1.437773e+003,1.786621e+001
1.438737e+003,1.687262e+001
1.439701e+003,1.613336e+001
1.440665e+003,1.569971e+001
1.441630e+003,1.508881e+001
1.442594e+003,1.421130e+001
1.443558e+003,1.373145e+001
1.444522e+003,1.431866e+001
1.445486e+003,1.575415e+001
1.446451e+003,1.712811e+001
1.447415e+003,1.808801e+001
1.448379e+003,1.879401e+001
1.449343e+003,1.937268e+001
1.450308e+003,1.935986e+001
1.451272e+003,1.814545e+001
1.452236e+003,1.604865e+001
1.453200e+003,1.462146e+001
1.454165e+003,1.472668e+001
1.455129e+003,1.597784e+001
1.456093e+003,1.785553e+001
1.457057e+003,1.977466e+001
1.458021e+003,2.046948e+001
1.458986e+003,1.976361e+001
1.459950e+003,1.926532e+001
1.460914e+003,1.986926e+001
1.461878e+003,2.086877e+001
1.462843e+003,2.188678e+001
1.463807e+003,2.266339e+001
1.464771e+003,2.308423e+001
1.465735e+003,2.339984e+001
1.466700e+003,2.381555e+001
1.467664e+003,2.410980e+001
1.468628e+003,2.390619e+001
1.469592e+003,2.288531e+001
1.470557e+003,2.058704e+001
1.471521e+003,1.913470e+001
1.472485e+003,2.070624e+001
1.473449e+003,2.238843e+001
1.474413e+003,2.303461e+001
1.475378e+003,2.298376e+001
1.476342e+003,2.189911e+001
1.477306e+003,2.046631e+001
1.478270e+003,2.015076e+001
1.479235e+003,2.130219e+001
1.480199e+003,2.264996e+001
1.481163e+003,2.300708e+001
1.482127e+003,2.297205e+001
1.483092e+003,2.367169e+001
1.484056e+003,2.495764e+001
1.485020e+003,2.555756e+001
1.485984e+003,2.444092e+001
1.486948e+003,2.406244e+001
1.487913e+003,2.623242e+001
1.488877e+003,2.917664e+001
1.489841e+003,3.073199e+001
1.490805e+003,3.066174e+001
1.491770e+003,3.024854e+001
1.492734e+003,3.035968e+001
1.493698e+003,3.018970e+001
1.494662e+003,2.814197e+001
1.495627e+003,2.507928e+001
1.496591e+003,2.585144e+001
1.497555e+003,3.164545e+001
1.498519e+003,3.626501e+001
1.499484e+003,3.769897e+001
1.500448e+003,3.783563e+001
1.501412e+003,3.644073e+001
1.502376e+003,3.448029e+001
1.503340e+003,3.452478e+001
1.504305e+003,3.706281e+001
1.505269e+003,3.957666e+001
1.506233e+003,4.046155e+001
1.507197e+003,4.029761e+001
1.508162e+003,4.000018e+001
1.509126e+003,3.987231e+001
1.510090e+003,3.979291e+001
1.511054e+003,3.980902e+001
1.512019e+003,4.072717e+001
1.512983e+003,4.285175e+001
1.513947e+003,4.466962e+001
1.514911e+003,4.560712e+001
1.515875e+003,4.621326e+001
1.516840e+003,4.654541e+001
1.517804e+003,4.621497e+001
1.518768e+003,4.519226e+001
1.519732e+003,4.315045e+001
1.520697e+003,4.104724e+001
1.521661e+003,3.970428e+001
1.522625e+003,3.887305e+001
1.523589e+003,3.837073e+001
1.524554e+003,3.786810e+001
1.525518e+003,3.695990e+001
1.526482e+003,3.577753e+001
1.527446e+003,3.450409e+001
1.528411e+003,3.295544e+001
1.529375e+003,3.166077e+001
1.530339e+003,3.220563e+001
1.531303e+003,3.435571e+001
1.532267e+003,3.569879e+001
1.533232e+003,3.553973e+001
1.534196e+003,3.430176e+001
1.535160e+003,3.255823e+001
1.536124e+003,3.090784e+001
1.537089e+003,2.983807e+001
1.538053e+003,2.947345e+001
1.539017e+003,2.924731e+001
1.539981e+003,2.849176e+001
1.540946e+003,2.783112e+001
1.541910e+003,2.893475e+001
1.542874e+003,3.138446e+001
1.543838e+003,3.133105e+001
1.544802e+003,2.846893e+001
1.545767e+003,2.683417e+001
1.546731e+003,2.558038e+001
1.547695e+003,2.521851e+001
1.548659e+003,2.772546e+001
1.549624e+003,3.047357e+001
1.550588e+003,3.040082e+001
1.551552e+003,2.818921e+001
1.552516e+003,2.676837e+001
1.553481e+003,2.738336e+001
1.554445e+003,2.832446e+001
1.555409e+003,2.777765e+001
1.556373e+003,2.677539e+001
1.557338e+003,2.749713e+001
1.558302e+003,2.947430e+001
1.559266e+003,2.939819e+001
1.560230e+003,2.560522e+001
1.561194e+003,2.274799e+001
1.562159e+003,2.363019e+001
1.563123e+003,2.584937e+001
1.564087e+003,2.672052e+001
1.565051e+003,2.624945e+001
1.566016e+003,2.551575e+001
1.566980e+003,2.514709e+001
1.567944e+003,2.570276e+001
1.568908e+003,2.796686e+001
1.569873e+003,3.160748e+001
1.570837e+003,3.462329e+001
1.571801e+003,3.709253e+001
1.572765e+003,3.712701e+001
1.573729e+003,3.110614e+001
1.574694e+003,2.677966e+001
1.575658e+003,2.732581e+001
1.576622e+003,2.930078e+001
1.577586e+003,3.034967e+001
1.578551e+003,3.041388e+001
1.579515e+003,2.986450e+001
1.580479e+003,2.934552e+001
1.581443e+003,3.019537e+001
1.582408e+003,3.307489e+001
1.583372e+003,3.623108e+001
1.584336e+003,3.678302e+001
1.585300e+003,3.500616e+001
1.586265e+003,3.330994e+001
1.587229e+003,3.124561e+001
1.588193e+003,2.948438e+001
1.589157e+003,2.811755e+001
1.590121e+003,2.740460e+001
1.591086e+003,2.797443e+001
1.592050e+003,2.910651e+001
1.593014e+003,2.895398e+001
1.593978e+003,2.754315e+001
1.594943e+003,2.773181e+001
1.595907e+003,3.144806e+001
1.596871e+003,3.575580e+001
1.597835e+003,3.562311e+001
1.598800e+003,3.116199e+001
1.599764e+003,2.844043e+001
1.600728e+003,2.898267e+001
1.601692e+003,2.897876e+001
1.602656e+003,2.823334e+001
1.603621e+003,2.872961e+001
1.604585e+003,3.111224e+001
1.605549e+003,3.373749e+001
1.606513e+003,3.559979e+001
1.607478e+003,3.624329e+001
1.608442e+003,3.510846e+001
1.609406e+003,3.258472e+001
1.610370e+003,3.053900e+001
1.611335e+003,3.030640e+001
1.612299e+003,3.073346e+001
1.613263e+003,2.983655e+001
1.614227e+003,2.777148e+001
1.615192e+003,2.774719e+001
1.616156e+003,3.152722e+001
1.617120e+003,3.377411e+001
1.618084e+003,3.166223e+001
1.619048e+003,2.959595e+001
1.620013e+003,3.155115e+001
1.620977e+003,3.540100e+001
1.621941e+003,3.738373e+001
1.622905e+003,3.655188e+001
1.623870e+003,3.397803e+001
1.624834e+003,3.075787e+001
1.625798e+003,2.827734e+001
1.626762e+003,2.816986e+001
1.627727e+003,2.977460e+001
1.628691e+003,3.059167e+001
1.629655e+003,3.109686e+001
1.630619e+003,3.109637e+001
1.631583e+003,2.965875e+001
1.632548e+003,2.888397e+001
1.633512e+003,2.973816e+001
1.634476e+003,3.118127e+001
1.635440e+003,3.254645e+001
1.636405e+003,3.326569e+001
1.637369e+003,3.276721e+001
1.638333e+003,3.141547e+001
1.639297e+003,3.037347e+001
1.640262e+003,3.020325e+001
1.641226e+003,3.064484e+001
1.642190e+003,3.195154e+001
1.643154e+003,3.417340e+001
1.644119e+003,3.474225e+001
1.645083e+003,3.221118e+001
1.646047e+003,3.179980e+001
1.647011e+003,3.599536e+001
1.647975e+003,3.886920e+001
1.648940e+003,3.672449e+001
1.649904e+003,3.274805e+001
1.650868e+003,3.065033e+001
1.651832e+003,3.075073e+001
1.652797e+003,3.149768e+001
1.653761e+003,3.200360e+001
1.654725e+003,3.234991e+001
1.655689e+003,3.265161e+001
1.656654e+003,3.288812e+001
1.657618e+003,3.326923e+001
1.658582e+003,3.408282e+001
1.659546e+003,3.398126e+001
1.660510e+003,3.215216e+001
1.661475e+003,3.080151e+001
1.662439e+003,3.014868e+001
1.663403e+003,3.078754e+001
1.664367e+003,3.422479e+001
1.665332e+003,3.821149e+001
1.666296e+003,3.860669e+001
1.667260e+003,3.536127e+001
1.668224e+003,3.318970e+001
1.669189e+003,3.558032e+001
1.670153e+003,3.963647e+001
1.671117e+003,3.904285e+001
1.672081e+003,3.325958e+001
1.673046e+003,3.037775e+001
1.674010e+003,3.292413e+001
1.674974e+003,3.425232e+001
1.675938e+003,3.188922e+001
1.676902e+003,2.967511e+001
1.677867e+003,2.827039e+001
1.678831e+003,2.780267e+001
1.679795e+003,2.954144e+001
1.680759e+003,3.252185e+001
1.681724e+003,3.416418e+001
1.682688e+003,3.362976e+001
1.683652e+003,3.207477e+001
1.684616e+003,3.011450e+001
1.685581e+003,2.843219e+001
1.686545e+003,2.878217e+001
1.687509e+003,3.112256e+001
1.688473e+003,3.413617e+001
1.689438e+003,3.856860e+001
1.690402e+003,4.069653e+001
1.691366e+003,3.756915e+001
1.692330e+003,3.488049e+001
1.693294e+003,3.668536e+001
1.694259e+003,3.990656e+001
1.695223e+003,4.158612e+001
1.696187e+003,4.190491e+001
1.697151e+003,4.163794e+001
1.698116e+003,4.052246e+001
1.699080e+003,3.906006e+001
1.700044e+003,3.797150e+001
1.701008e+003,3.760504e+001
1.701973e+003,3.849707e+001
1.702937e+003,4.072003e+001
1.703901e+003,4.317297e+001
1.704865e+003,4.497351e+001
1.705829e+003,4.527380e+001
1.706794e+003,4.405652e+001
1.707758e+003,4.311090e+001
1.708722e+003,4.378229e+001
1.709686e+003,4.539771e+001
1.710651e+003,4.677863e+001
1.711615e+003,4.730750e+001
1.712579e+003,4.678790e+001
1.713543e+003,4.550555e+001
1.714508e+003,4.537787e+001
1.715472e+003,4.842133e+001
1.716436e+003,5.214374e+001
1.717400e+003,5.278394e+001
1.718365e+003,5.081396e+001
1.719329e+003,4.919983e+001
1.720293e+003,4.895514e+001
1.721257e+003,4.945734e+001
1.722221e+003,5.031921e+001
1.723186e+003,5.087866e+001
1.724150e+003,5.024707e+001
1.725114e+003,4.910107e+001
1.726078e+003,4.950702e+001
1.727043e+003,5.125348e+001
1.728007e+003,5.174231e+001
1.728971e+003,5.028223e+001
1.729935e+003,4.908142e+001
1.730900e+003,4.891614e+001
1.731864e+003,4.912622e+001
1.732828e+003,4.925079e+001
1.733792e+003,4.944757e+001
1.734756e+003,5.015704e+001
1.735721e+003,5.135352e+001
1.736685e+003,5.223602e+001
1.737649e+003,5.213184e+001
1.738613e+003,5.162445e+001
1.739578e+003,5.199023e+001
1.740542e+003,5.306091e+001
1.741506e+003,5.247705e+001
1.742470e+003,4.898065e+001
1.743435e+003,4.718994e+001
1.744399e+003,4.971887e+001
1.745363e+003,5.132123e+001
1.746327e+003,4.978430e+001
1.747292e+003,4.842773e+001
1.748256e+003,5.015637e+001
1.749220e+003,5.236682e+001
1.750184e+003,5.120886e+001
1.751148e+003,4.726465e+001
1.752113e+003,4.401196e+001
1.753077e+003,4.293243e+001
1.754041e+003,4.264679e+001
1.755005e+003,4.196735e+001
1.755970e+003,4.153198e+001
1.756934e+003,4.219073e+001
1.757898e+003,4.359009e+001
1.758862e+003,4.538348e+001
1.759827e+003,4.799475e+001
1.760791e+003,4.969104e+001
1.761755e+003,4.931854e+001
1.762719e+003,4.850262e+001
1.763683e+003,4.870605e+001
1.764648e+003,4.894983e+001
1.765612e+003,4.818146e+001
1.766576e+003,4.746179e+001
1.767540e+003,4.838715e+001
1.768505e+003,5.034436e+001
1.769469e+003,5.127924e+001
1.770433e+003,5.007013e+001
1.771397e+003,4.799371e+001
1.772362e+003,4.695361e+001
1.773326e+003,4.746954e+001
1.774290e+003,4.868896e+001
1.775254e+003,4.972052e+001
1.776219e+003,5.072479e+001
1.777183e+003,5.202319e+001
1.778147e+003,5.192157e+001
1.779111e+003,4.894916e+001
1.780075e+003,4.504242e+001
1.781040e+003,4.318896e+001
1.782004e+003,4.318213e+001
1.782968e+003,4.303137e+001
1.783932e+003,4.231854e+001
1.784897e+003,4.253271e+001
1.785861e+003,4.508673e+001
1.786825e+003,4.670782e+001
1.787789e+003,4.566766e+001
1.788754e+003,4.380560e+001
1.789718e+003,4.265222e+001
1.790682e+003,4.181879e+001
1.791646e+003,3.973425e+001
1.792610e+003,3.681616e+001
1.793575e+003,3.646564e+001
1.794539e+003,4.060431e+001
1.795503e+003,4.560339e+001
1.796467e+003,4.606854e+001
1.797432e+003,4.304279e+001
1.798396e+003,4.213690e+001
1.799360e+003,4.349927e+001
1.800324e+003,4.443274e+001
1.801289e+003,4.535828e+001
1.802253e+003,4.513531e+001
1.803217e+003,4.313715e+001
1.804181e+003,4.156702e+001
1.805146e+003,4.041785e+001
1.806110e+003,4.006720e+001
1.807074e+003,4.229456e+001
1.808038e+003,4.610803e+001
1.809002e+003,4.746130e+001
1.809967e+003,4.501410e+001
1.810931e+003,4.245178e+001
1.811895e+003,4.260693e+001
1.812859e+003,4.378101e+001
1.813824e+003,4.372992e+001
1.814788e+003,4.300745e+001
1.815752e+003,4.314172e+001
1.816716e+003,4.387207e+001
1.817681e+003,4.368726e+001
1.818645e+003,4.238428e+001
1.819609e+003,4.059607e+001
1.820573e+003,3.837335e+001
1.821537e+003,3.672870e+001
1.822502e+003,3.734070e+001
1.823466e+003,3.957593e+001
1.824430e+003,4.032855e+001
1.825394e+003,3.881195e+001
1.826359e+003,3.769867e+001
1.827323e+003,3.846405e+001
1.828287e+003,4.049170e+001
1.829251e+003,4.329462e+001
1.830216e+003,4.539069e+001
1.831180e+003,4.629083e+001
1.832144e+003,4.553003e+001
1.833108e+003,4.218488e+001
1.834073e+003,3.783112e+001
1.835037e+003,3.581647e+001
1.836001e+003,3.710236e+001
1.836965e+003,3.961267e+001
1.837929e+003,4.181836e+001
1.838894e+003,4.331927e+001
1.839858e+003,4.236401e+001
1.840822e+003,3.886023e+001
1.841786e+003,3.735193e+001
1.842751e+003,3.886322e+001
1.843715e+003,4.101819e+001
1.844679e+003,4.360913e+001
1.845643e+003,4.592047e+001
1.846608e+003,4.662964e+001
1.847572e+003,4.561084e+001
1.848536e+003,4.378052e+001
1.849500e+003,4.209052e+001
1.850464e+003,4.140747e+001
1.851429e+003,4.178156e+001
1.852393e+003,4.178882e+001
1.853357e+003,3.956226e+001
1.854321e+003,3.725922e+001
1.855286e+003,3.672296e+001
1.856250e+003,3.754126e+001
1.857214e+003,3.999469e+001
1.858178e+003,4.277277e+001
1.859143e+003,4.298987e+001
1.860107e+003,4.091156e+001
1.861071e+003,3.983282e+001
1.862035e+003,4.094263e+001
1.863000e+003,4.239697e+001
1.863964e+003,4.276807e+001
1.864928e+003,4.222327e+001
1.865892e+003,4.079944e+001
1.866856e+003,3.889600e+001
1.867821e+003,3.901526e+001
1.868785e+003,4.123383e+001
1.869749e+003,4.237256e+001
1.870713e+003,4.225684e+001
1.871678e+003,4.226251e+001
1.872642e+003,4.267059e+001
1.873606e+003,4.342340e+001
1.874570e+003,4.440796e+001
1.875535e+003,4.470258e+001
1.876499e+003,4.312933e+001
1.877463e+003,4.075238e+001
1.878427e+003,4.122675e+001
1.879391e+003,4.620361e+001
1.880356e+003,5.017487e+001
1.881320e+003,4.849860e+001
1.882284e+003,4.448883e+001
1.883248e+003,4.144244e+001
1.884213e+003,3.992584e+001
1.885177e+003,4.053955e+001
1.886141e+003,4.242914e+001
1.887105e+003,4.350745e+001
1.888070e+003,4.323083e+001
1.889034e+003,4.212537e+001
1.889998e+003,4.072162e+001
1.890962e+003,4.009943e+001
1.891927e+003,4.124518e+001
1.892891e+003,4.312372e+001
1.893855e+003,4.350238e+001
1.894819e+003,4.198108e+001
1.895783e+003,4.154553e+001
1.896748e+003,4.450903e+001
1.897712e+003,4.633728e+001
1.898676e+003,4.450708e+001
1.899640e+003,4.244641e+001
1.900605e+003,4.117212e+001
1.901569e+003,4.060553e+001
1.902533e+003,4.128870e+001
1.903497e+003,4.242291e+001
1.904462e+003,4.218054e+001
1.905426e+003,4.053607e+001
1.906390e+003,3.972253e+001
1.907354e+003,4.130316e+001
1.908318e+003,4.377441e+001
1.909283e+003,4.508276e+001
1.910247e+003,4.541022e+001
1.911211e+003,4.645081e+001
1.912175e+003,4.748950e+001
1.913140e+003,4.572107e+001
1.914104e+003,4.169104e+001
1.915068e+003,3.894983e+001
1.916032e+003,3.870447e+001
1.916997e+003,4.008752e+001
1.917961e+003,4.261694e+001
1.918925e+003,4.545447e+001
1.919889e+003,4.667700e+001
1.920854e+003,4.611279e+001
1.921818e+003,4.565179e+001
1.922782e+003,4.549542e+001
1.923746e+003,4.549164e+001
1.924710e+003,4.679968e+001
1.925675e+003,4.697357e+001
1.926639e+003,4.326141e+001
1.927603e+003,3.989587e+001
1.928567e+003,4.011786e+001
1.929532e+003,4.145441e+001
1.930496e+003,4.063214e+001
1.931460e+003,3.843427e+001
1.932424e+003,3.767676e+001
1.933389e+003,3.871130e+001
1.934353e+003,3.982910e+001
1.935317e+003,4.063928e+001
1.936281e+003,4.111456e+001
1.937245e+003,4.144293e+001
1.938210e+003,4.138666e+001
1.939174e+003,4.022461e+001
1.940138e+003,3.856482e+001
1.941102e+003,3.773975e+001
1.942067e+003,3.798187e+001
1.943031e+003,3.844025e+001
1.943995e+003,3.846277e+001
1.944959e+003,3.844568e+001
1.945924e+003,3.923102e+001
1.946888e+003,4.044989e+001
1.947852e+003,4.044104e+001
1.948816e+003,3.929370e+001
1.949781e+003,3.967981e+001
1.950745e+003,4.152917e+001
1.951709e+003,4.058850e+001
1.952673e+003,3.626245e+001
1.953637e+003,3.394446e+001
1.954602e+003,3.549841e+001
1.955566e+003,3.796259e+001
1.956530e+003,3.989868e+001
1.957494e+003,4.141827e+001
1.958459e+003,4.196863e+001
1.959423e+003,4.123401e+001
1.960387e+003,4.033319e+001
1.961351e+003,3.957141e+001
1.962316e+003,3.908881e+001
1.963280e+003,3.905200e+001
1.964244e+003,3.920947e+001
1.965208e+003,4.030060e+001
1.966172e+003,4.097858e+001
1.967137e+003,3.960272e+001
1.968101e+003,3.722552e+001
1.969065e+003,3.445544e+001
1.970029e+003,3.199408e+001
1.970994e+003,3.246600e+001
1.971958e+003,3.655615e+001
1.972922e+003,3.957922e+001
1.973886e+003,3.725830e+001
1.974851e+003,3.333929e+001
1.975815e+003,3.299634e+001
1.976779e+003,3.523102e+001
1.977743e+003,3.851398e+001
1.978708e+003,4.219348e+001
1.979672e+003,4.377051e+001
1.980636e+003,4.268835e+001
1.981600e+003,3.985602e+001
1.982564e+003,3.607483e+001
1.983529e+003,3.316309e+001
1.984493e+003,3.216754e+001
1.985457e+003,3.317133e+001
1.986421e+003,3.627130e+001
1.987386e+003,4.057776e+001
1.988350e+003,4.306262e+001
1.989314e+003,4.315955e+001
1.990278e+003,4.047961e+001
1.991243e+003,3.341290e+001
1.992207e+003,2.927930e+001
1.993171e+003,3.148773e+001
1.994135e+003,3.428430e+001
1.995099e+003,3.530573e+001
1.996064e+003,3.551666e+001
1.997028e+003,3.502081e+001
1.997992e+003,3.413831e+001
1.998956e+003,3.315820e+001
1.999921e+003,3.234528e+001
2.000885e+003,3.433673e+001
2.001849e+003,4.118176e+001
2.002813e+003,4.434735e+001
2.003778e+003,3.891254e+001
2.004742e+003,3.372937e+001
2.005706e+003,3.350989e+001
2.006670e+003,3.478088e+001
2.007635e+003,3.437512e+001
2.008599e+003,3.326575e+001
2.009563e+003,3.313873e+001
2.010527e+003,3.406177e+001
2.011491e+003,3.584253e+001
2.012456e+003,3.802911e+001
2.013420e+003,3.833002e+001
2.014384e+003,3.485638e+001
2.015348e+003,3.146246e+001
2.016313e+003,3.382947e+001
2.017277e+003,3.855457e+001
2.018241e+003,3.822235e+001
2.019205e+003,3.478912e+001
2.020170e+003,3.507776e+001
2.021134e+003,3.895532e+001
2.022098e+003,4.103552e+001
2.023062e+003,3.995923e+001
2.024026e+003,3.809436e+001
2.024991e+003,3.663959e+001
2.025955e+003,3.614868e+001
2.026919e+003,3.798572e+001
2.027883e+003,4.118231e+001
2.028848e+003,4.162744e+001
2.029812e+003,3.936530e+001
2.030776e+003,3.926807e+001
2.031740e+003,4.098492e+001
2.032705e+003,4.079688e+001
2.033669e+003,3.840491e+001
2.034633e+003,3.639972e+001
2.035597e+003,3.596155e+001
2.036562e+003,3.686304e+001
2.037526e+003,3.888605e+001
2.038490e+003,4.075293e+001
2.039454e+003,4.023120e+001
2.040418e+003,3.716071e+001
2.041383e+003,3.508740e+001
2.042347e+003,3.508167e+001
2.043311e+003,3.494299e+001
2.044275e+003,3.324786e+001
2.045240e+003,3.349719e+001
2.046204e+003,3.850940e+001
2.047168e+003,4.274451e+001
2.048132e+003,4.250525e+001
2.049097e+003,4.081995e+001
2.050061e+003,4.084082e+001
2.051025e+003,4.153333e+001
2.051989e+003,4.027271e+001
2.052954e+003,3.746216e+001
2.053918e+003,3.682495e+001
2.054882e+003,4.029016e+001
2.055846e+003,4.262683e+001
2.056811e+003,3.926343e+001
2.057775e+003,3.501733e+001
2.058739e+003,3.445837e+001
2.059703e+003,3.568506e+001
2.060667e+003,3.601892e+001
2.061632e+003,3.531183e+001
2.062596e+003,3.414825e+001
2.063560e+003,3.286206e+001
2.064524e+003,3.159375e+001
2.065489e+003,3.081384e+001
2.066453e+003,3.171771e+001
2.067417e+003,3.467291e+001
2.068381e+003,3.766058e+001
2.069345e+003,3.976904e+001
2.070310e+003,4.021021e+001
2.071274e+003,3.607996e+001
2.072238e+003,3.027881e+001
2.073202e+003,2.924969e+001
2.074167e+003,3.216699e+001
2.075131e+003,3.527911e+001
2.076095e+003,3.744977e+001
2.077059e+003,3.773987e+001
2.078023e+003,3.586066e+001
2.078988e+003,3.368640e+001
2.079952e+003,3.261389e+001
2.080916e+003,3.213519e+001
2.081880e+003,3.394104e+001
2.082845e+003,3.853931e+001
2.083809e+003,3.855884e+001
2.084773e+003,3.324500e+001
2.085737e+003,3.000854e+001
2.086702e+003,2.997028e+001
2.087666e+003,3.166620e+001
2.088630e+003,3.538660e+001
2.089594e+003,3.788190e+001
2.090559e+003,3.588196e+001
2.091523e+003,3.173212e+001
2.092487e+003,2.955780e+001
2.093451e+003,2.927039e+001
2.094416e+003,2.906128e+001
2.095380e+003,2.868781e+001
2.096344e+003,2.849402e+001
2.097308e+003,2.913916e+001
2.098272e+003,2.973273e+001
2.099237e+003,3.025793e+001
2.100201e+003,2.942334e+001
2.101165e+003,2.547235e+001
2.102129e+003,2.168579e+001
2.103094e+003,2.059814e+001
2.104058e+003,2.158936e+001
2.105022e+003,2.461163e+001
2.105986e+003,2.938416e+001
2.106951e+003,3.137720e+001
2.107915e+003,2.893158e+001
2.108879e+003,2.669110e+001
2.109843e+003,2.459601e+001
2.110808e+003,2.372742e+001
2.111772e+003,2.547791e+001
2.112736e+003,2.782068e+001
2.113700e+003,2.981171e+001
2.114665e+003,3.073889e+001
2.115629e+003,3.015784e+001
2.116593e+003,2.873938e+001
2.117557e+003,2.704053e+001
2.118521e+003,2.590668e+001
2.119486e+003,2.754053e+001
2.120450e+003,3.296637e+001
2.121414e+003,3.572052e+001
2.122378e+003,3.101813e+001
2.123343e+003,2.561584e+001
2.124307e+003,2.291205e+001
2.125271e+003,2.214764e+001
2.126235e+003,2.340564e+001
2.127199e+003,2.494086e+001
2.128164e+003,2.399359e+001
2.129128e+003,2.164746e+001
2.130092e+003,2.154968e+001
2.131056e+003,2.405798e+001
2.132021e+003,2.567297e+001
2.132985e+003,2.447644e+001
2.133949e+003,2.299286e+001
2.134913e+003,2.282159e+001
2.135877e+003,2.298053e+001
2.136842e+003,2.427692e+001
2.137806e+003,2.649640e+001
2.138770e+003,2.822119e+001
2.139734e+003,2.877734e+001
2.140699e+003,2.741919e+001
2.141663e+003,2.461487e+001
2.142627e+003,2.227655e+001
2.143591e+003,2.155853e+001
2.144556e+003,2.210309e+001
2.145520e+003,2.328741e+001
2.146484e+003,2.458020e+001
2.147448e+003,2.582996e+001
2.148413e+003,2.594940e+001
2.149377e+003,2.400653e+001
2.150341e+003,2.157971e+001
2.151305e+003,2.007550e+001
2.152270e+003,1.953271e+001
2.153234e+003,1.938843e+001
2.154198e+003,1.920044e+001
2.155162e+003,1.942755e+001
2.156126e+003,2.036041e+001
2.157091e+003,2.129370e+001
2.158055e+003,2.194739e+001
2.159019e+003,2.283594e+001
2.159983e+003,2.368579e+001
2.160948e+003,2.413251e+001
2.161912e+003,2.478674e+001
2.162876e+003,2.525726e+001
2.163840e+003,2.449939e+001
2.164805e+003,2.290491e+001
2.165769e+003,2.118060e+001
2.166733e+003,1.966705e+001
2.167697e+003,1.915149e+001
2.168662e+003,1.970996e+001
2.169626e+003,1.942010e+001
2.170590e+003,1.678406e+001
2.171554e+003,1.447461e+001
2.172519e+003,1.651111e+001
2.173483e+003,1.971295e+001
2.174447e+003,1.769617e+001
2.175411e+003,1.347455e+001
2.176375e+003,1.356781e+001
2.177340e+003,1.672101e+001
2.178304e+003,1.825153e+001
2.179268e+003,1.766919e+001
2.180232e+003,1.815009e+001
2.181197e+003,2.041620e+001
2.182161e+003,2.175110e+001
2.183125e+003,2.096588e+001
2.184089e+003,1.933966e+001
2.185053e+003,1.755493e+001
2.186018e+003,1.564209e+001
2.186982e+003,1.369238e+001
2.187946e+003,1.198553e+001
2.188910e+003,1.125641e+001
2.189875e+003,1.151904e+001
2.190839e+003,1.353705e+001
2.191803e+003,1.689471e+001
2.192767e+003,1.827094e+001
2.193731e+003,1.665417e+001
2.194696e+003,1.399768e+001
2.195660e+003,1.168756e+001
2.196624e+003,1.037134e+001
2.197588e+003,1.059930e+001
2.198553e+003,1.174658e+001
2.199517e+003,1.323486e+001
2.200481e+003,1.466315e+001
2.201445e+003,1.524207e+001
2.202410e+003,1.521277e+001
2.203374e+003,1.408154e+001
2.204338e+003,1.220990e+001
2.205302e+003,1.185205e+001
2.206267e+003,1.283960e+001
2.207231e+003,1.254419e+001
2.208195e+003,1.029211e+001
2.209159e+003,9.046265e+000
2.210124e+003,1.159967e+001
2.211088e+003,1.484631e+001
2.212052e+003,1.262512e+001
2.213016e+003,7.648071e+000
2.213980e+003,6.683105e+000
2.214945e+003,8.608826e+000
2.215909e+003,1.152155e+001
2.216873e+003,1.487720e+001
2.217837e+003,1.556641e+001
2.218802e+003,1.351947e+001
2.219766e+003,1.255524e+001
2.220730e+003,1.370459e+001
2.221694e+003,1.470306e+001
2.222659e+003,1.457202e+001
2.223623e+003,1.285876e+001
2.224587e+003,7.517944e+000
2.225551e+003,2.684937e+000
2.226516e+003,5.658569e+000
2.227480e+003,1.151886e+001
2.228444e+003,1.216467e+001
2.229408e+003,9.826355e+000
2.230373e+003,9.548584e+000
2.231337e+003,1.147595e+001
2.232301e+003,1.326855e+001
2.233265e+003,1.388336e+001
2.234229e+003,1.350476e+001
2.235194e+003,1.248993e+001
2.236158e+003,1.110260e+001
2.237122e+003,8.856079e+000
2.238086e+003,6.697510e+000
2.239051e+003,7.189880e+000
2.240015e+003,8.795471e+000
2.240979e+003,8.754883e+000
2.241943e+003,7.836609e+000
2.242907e+003,7.184143e+000
2.243872e+003,6.938354e+000
2.244836e+003,7.031555e+000
2.245800e+003,7.275940e+000
2.246764e+003,7.851135e+000
2.247729e+003,8.889099e+000
2.248693e+003,9.771606e+000
2.249657e+003,1.034570e+001
2.250621e+003,1.012299e+001
2.251585e+003,7.578003e+000
2.252550e+003,5.078552e+000
2.253514e+003,4.805054e+000
2.254478e+003,5.431763e+000
2.255442e+003,6.114502e+000
2.256407e+003,7.006836e+000
2.257371e+003,8.202454e+000
2.258335e+003,9.352600e+000
2.259299e+003,9.796814e+000
2.260264e+003,9.264282e+000
2.261228e+003,8.268250e+000
2.262192e+003,7.612732e+000
2.263156e+003,7.478333e+000
2.264121e+003,7.093933e+000
2.265085e+003,6.929321e+000
2.266049e+003,8.045593e+000
2.267013e+003,8.999390e+000
2.267978e+003,8.899597e+000
2.268942e+003,8.120117e+000
2.269906e+003,5.582153e+000
2.270870e+003,3.021118e+000
2.271834e+003,4.343201e+000
2.272799e+003,8.483765e+000
2.273763e+003,1.032953e+001
2.274727e+003,9.307861e+000
2.275691e+003,8.311768e+000
2.276656e+003,6.923767e+000
2.277620e+003,6.942871e+000
2.278584e+003,1.049213e+001
2.279548e+003,1.297827e+001
2.280513e+003,1.133264e+001
2.281477e+003,9.207886e+000
2.282441e+003,8.977844e+000
2.283405e+003,9.853699e+000
2.284370e+003,1.155603e+001
2.285334e+003,1.390979e+001
2.286298e+003,1.606427e+001
2.287262e+003,1.737372e+001
2.288227e+003,1.586121e+001
2.289191e+003,9.598389e+000
2.290155e+003,5.725586e+000
2.291119e+003,6.005066e+000
2.292083e+003,6.886230e+000
2.293048e+003,7.429443e+000
2.294012e+003,8.290466e+000
2.294976e+003,1.076184e+001
2.295940e+003,1.312537e+001
2.296905e+003,1.322949e+001
2.297869e+003,1.213416e+001
2.298833e+003,1.227295e+001
2.299797e+003,1.342615e+001
2.300761e+003,1.326074e+001
2.301726e+003,1.168250e+001
2.302690e+003,1.080444e+001
2.303654e+003,9.990723e+000
2.304618e+003,1.097034e+001
2.305583e+003,1.470654e+001
2.306547e+003,1.747632e+001
2.307511e+003,1.820178e+001
2.308475e+003,1.840637e+001
2.309439e+003,1.875293e+001
2.310404e+003,1.937769e+001
2.311368e+003,2.038098e+001
2.312332e+003,2.134912e+001
2.313296e+003,2.205444e+001
2.314261e+003,2.273938e+001
2.315225e+003,2.222253e+001
2.316189e+003,2.052722e+001
2.317153e+003,2.073254e+001
2.318118e+003,2.245679e+001
2.319082e+003,2.198755e+001
2.320046e+003,1.933191e+001
2.321010e+003,1.820837e+001
2.321975e+003,2.000867e+001
2.322939e+003,2.351440e+001
2.323903e+003,2.744507e+001
2.324867e+003,3.072253e+001
2.325832e+003,3.264734e+001
2.326796e+003,3.358740e+001
2.327760e+003,3.415540e+001
2.328724e+003,3.510400e+001
2.329688e+003,3.706262e+001
2.330653e+003,3.853174e+001
2.331617e+003,3.649963e+001
2.332581e+003,3.300012e+001
2.333545e+003,3.356140e+001
2.334510e+003,3.808630e+001
2.335474e+003,4.214490e+001
2.336438e+003,4.391736e+001
2.337402e+003,4.421094e+001
2.338367e+003,4.346570e+001
2.339331e+003,4.315710e+001
2.340295e+003,4.478650e+001
2.341259e+003,4.588904e+001
2.342224e+003,4.364014e+001
2.343188e+003,4.216003e+001
2.344152e+003,4.532520e+001
2.345116e+003,5.034900e+001
2.346081e+003,5.440637e+001
2.347045e+003,5.718298e+001
2.348009e+003,5.952893e+001
2.348973e+003,6.117004e+001
2.349938e+003,5.991736e+001
2.350902e+003,5.484143e+001
2.351866e+003,5.215625e+001
2.352830e+003,5.497620e+001
2.353794e+003,5.846252e+001
2.354759e+003,6.166650e+001
2.355723e+003,6.466870e+001
2.356687e+003,6.756641e+001
2.357651e+003,7.026099e+001
2.358615e+003,7.281165e+001
2.359580e+003,7.483276e+001
2.360544e+003,7.602100e+001
2.361508e+003,7.655078e+001
2.362472e+003,7.661194e+001
2.363437e+003,7.707373e+001
2.364401e+003,8.012866e+001
2.365365e+003,8.545850e+001
2.366329e+003,8.871497e+001
2.367293e+003,8.962854e+001
2.368258e+003,9.098499e+001
2.369222e+003,9.353735e+001
2.370186e+003,9.698608e+001
2.371150e+003,1.011484e+002
2.372115e+003,1.035356e+002
2.373079e+003,1.025145e+002
2.374043e+003,1.015127e+002
2.375007e+003,1.043021e+002
2.375972e+003,1.088071e+002
2.376936e+003,1.114441e+002
2.377900e+003,1.129821e+002
2.378864e+003,1.146525e+002
2.379829e+003,1.161932e+002
2.380793e+003,1.177667e+002
2.381757e+003,1.195590e+002
2.382721e+003,1.218569e+002
2.383686e+003,1.244164e+002
2.384650e+003,1.262872e+002
2.385614e+003,1.273278e+002
2.386578e+003,1.280481e+002
2.387542e+003,1.284875e+002
2.388507e+003,1.291458e+002
2.389471e+003,1.307817e+002
2.390435e+003,1.321855e+002
2.391399e+003,1.321250e+002
2.392364e+003,1.328400e+002
2.393328e+003,1.361714e+002
2.394292e+003,1.392261e+002
2.395256e+003,1.402682e+002
2.396221e+003,1.397295e+002
2.397185e+003,1.375885e+002
2.398149e+003,1.352599e+002
2.399113e+003,1.346670e+002
2.400078e+003,1.355460e+002
2.401042e+003,1.377235e+002
2.402006e+003,1.421305e+002
2.402970e+003,1.432220e+002
2.403935e+003,1.389091e+002
2.404899e+003,1.379435e+002
2.405863e+003,1.427064e+002
2.406827e+003,1.444655e+002
2.407792e+003,1.404922e+002
2.408756e+003,1.373838e+002
2.409720e+003,1.377316e+002
2.410684e+003,1.402438e+002
2.411648e+003,1.447532e+002
2.412613e+003,1.494668e+002
2.413577e+003,1.511173e+002
2.414541e+003,1.512999e+002
2.415505e+003,1.523634e+002
2.416469e+003,1.531335e+002
2.417434e+003,1.525984e+002
2.418398e+003,1.516990e+002
2.419362e+003,1.515769e+002
2.420326e+003,1.523298e+002
2.421291e+003,1.537312e+002
2.422255e+003,1.549915e+002
2.423219e+003,1.557281e+002
2.424183e+003,1.567318e+002
2.425147e+003,1.581321e+002
2.426112e+003,1.593866e+002
2.427076e+003,1.607959e+002
2.428040e+003,1.631975e+002
2.429004e+003,1.635189e+002
2.429969e+003,1.586505e+002
2.430933e+003,1.543857e+002
2.431897e+003,1.544554e+002
2.432861e+003,1.563649e+002
2.433826e+003,1.592360e+002
2.434790e+003,1.614252e+002
2.435754e+003,1.601200e+002
2.436718e+003,1.564904e+002
2.437683e+003,1.540756e+002
2.438647e+003,1.528629e+002
2.439611e+003,1.519894e+002
2.440575e+003,1.515328e+002
2.441540e+003,1.513146e+002
2.442504e+003,1.512667e+002
2.443468e+003,1.507106e+002
2.444432e+003,1.497010e+002
2.445396e+003,1.482305e+002
2.446361e+003,1.460129e+002
2.447325e+003,1.431523e+002
2.448289e+003,1.400052e+002
2.449253e+003,1.374597e+002
2.450218e+003,1.366559e+002
2.451182e+003,1.369882e+002
2.452146e+003,1.361447e+002
2.453110e+003,1.343319e+002
2.454075e+003,1.339143e+002
2.455039e+003,1.339066e+002
2.456003e+003,1.322710e+002
2.456967e+003,1.304824e+002
2.457932e+003,1.304646e+002
2.458896e+003,1.311198e+002
2.459860e+003,1.304415e+002
2.460824e+003,1.281785e+002
2.461789e+003,1.252020e+002
2.462753e+003,1.219827e+002
2.463717e+003,1.201366e+002
2.464681e+003,1.203153e+002
2.465646e+003,1.209354e+002
2.466610e+003,1.217721e+002
2.467574e+003,1.217263e+002
2.468538e+003,1.215824e+002
2.469502e+003,1.205615e+002
2.470467e+003,1.176117e+002
2.471431e+003,1.137727e+002
2.472395e+003,1.095922e+002
2.473359e+003,1.062452e+002
2.474323e+003,1.061494e+002
2.475288e+003,1.083724e+002
2.476252e+003,1.086421e+002
2.477216e+003,1.070021e+002
2.478180e+003,1.045619e+002
2.479145e+003,1.016881e+002
2.480109e+003,1.011466e+002
2.481073e+003,1.026923e+002
2.482037e+003,1.043456e+002
2.483001e+003,1.053975e+002
2.483966e+003,1.043475e+002
2.484930e+003,1.010142e+002
2.485894e+003,9.880493e+001
2.486858e+003,9.948999e+001
2.487823e+003,9.962585e+001
2.488787e+003,9.691052e+001
2.489751e+003,9.547180e+001
2.490715e+003,9.724231e+001
2.491680e+003,9.882764e+001
2.492644e+003,1.001398e+002
2.493608e+003,1.000803e+002
2.494572e+003,9.559998e+001
2.495537e+003,9.155164e+001
2.496501e+003,9.279993e+001
2.497465e+003,9.565674e+001
2.498429e+003,9.450952e+001
2.499394e+003,9.128284e+001
2.500358e+003,9.195227e+001
2.501322e+003,9.612744e+001
2.502286e+003,9.736243e+001
2.503250e+003,9.602295e+001
2.504215e+003,9.512378e+001
2.505179e+003,9.472778e+001
2.506143e+003,9.644495e+001
2.507107e+003,9.987524e+001
2.508072e+003,1.013423e+002
2.509036e+003,1.001528e+002
2.510000e+003,9.898486e+001
2.510964e+003,9.919482e+001
2.511929e+003,9.970520e+001
2.512893e+003,9.950146e+001
2.513857e+003,9.909949e+001
2.514821e+003,9.905273e+001
2.515786e+003,9.796265e+001
2.516750e+003,9.447986e+001
2.517714e+003,9.202332e+001
2.518678e+003,9.302356e+001
2.519643e+003,9.464246e+001
2.520607e+003,9.473718e+001
2.521571e+003,9.411853e+001
2.522535e+003,9.373425e+001
2.523500e+003,9.313013e+001
2.524464e+003,9.149524e+001
2.525428e+003,8.915955e+001
2.526392e+003,9.032544e+001
2.527356e+003,9.491431e+001
2.528321e+003,9.542810e+001
2.529285e+003,9.205615e+001
2.530249e+003,9.171802e+001
2.531213e+003,9.449512e+001
2.532177e+003,9.630225e+001
2.533142e+003,9.644299e+001
2.534106e+003,9.580164e+001
2.535070e+003,9.462671e+001
2.536034e+003,9.416931e+001
2.536999e+003,9.422437e+001
2.537963e+003,9.402698e+001
2.538927e+003,9.526440e+001
2.539891e+003,9.642969e+001
2.540855e+003,9.692859e+001
2.541820e+003,9.682532e+001
2.542784e+003,9.446997e+001
2.543748e+003,9.186621e+001
2.544712e+003,9.094507e+001
2.545677e+003,9.137598e+001
2.546641e+003,9.264783e+001
2.547605e+003,9.378992e+001
2.548569e+003,9.280383e+001
2.549534e+003,9.054358e+001
2.550498e+003,9.063025e+001
2.551462e+003,9.253271e+001
2.552426e+003,9.179272e+001
2.553391e+003,8.859509e+001
2.554355e+003,8.632507e+001
2.555319e+003,8.528845e+001
2.556283e+003,8.499084e+001
2.557248e+003,8.567529e+001
2.558212e+003,8.692444e+001
2.559176e+003,8.784644e+001
2.560140e+003,8.744324e+001
2.561104e+003,8.536987e+001
2.562069e+003,8.288391e+001
2.563033e+003,7.963879e+001
2.563997e+003,7.738184e+001
2.564961e+003,7.715979e+001
2.565926e+003,7.740967e+001
2.566890e+003,7.764465e+001
2.567854e+003,7.814465e+001
2.568818e+003,7.870239e+001
2.569783e+003,7.883606e+001
2.570747e+003,7.885083e+001
2.571711e+003,7.884155e+001
2.572675e+003,7.795825e+001
2.573640e+003,7.598657e+001
2.574604e+003,7.158984e+001
2.575568e+003,6.683484e+001
2.576532e+003,6.790869e+001
2.577497e+003,7.204724e+001
2.578461e+003,7.396313e+001
2.579425e+003,7.391248e+001
2.580389e+003,7.261572e+001
2.581354e+003,7.051343e+001
2.582318e+003,6.975415e+001
2.583282e+003,7.067908e+001
2.584246e+003,6.939807e+001
2.585210e+003,6.429065e+001
2.586175e+003,6.373193e+001
2.587139e+003,6.974902e+001
2.588103e+003,7.136646e+001
2.589067e+003,6.680237e+001
2.590031e+003,6.484802e+001
2.590996e+003,6.726672e+001
2.591960e+003,6.781458e+001
2.592924e+003,6.481580e+001
2.593888e+003,6.243005e+001
2.594853e+003,6.276038e+001
2.595817e+003,6.352148e+001
2.596781e+003,6.253430e+001
2.597745e+003,6.064722e+001
2.598709e+003,5.975793e+001
2.599674e+003,5.969971e+001
2.600638e+003,5.842236e+001
2.601602e+003,5.726978e+001
2.602566e+003,5.907056e+001
2.603531e+003,6.071094e+001
2.604495e+003,5.903894e+001
2.605459e+003,5.670581e+001
2.606423e+003,5.593945e+001
2.607388e+003,5.555432e+001
2.608352e+003,5.442798e+001
2.609316e+003,5.305908e+001
2.610280e+003,5.236328e+001
2.611245e+003,5.249292e+001
2.612209e+003,5.145044e+001
2.613173e+003,4.932471e+001
2.614137e+003,4.912561e+001
2.615102e+003,5.016455e+001
2.616066e+003,5.035168e+001
2.617030e+003,4.986938e+001
2.617994e+003,4.921350e+001
2.618958e+003,4.855457e+001
2.619923e+003,4.782898e+001
2.620887e+003,4.584766e+001
2.621851e+003,4.538196e+001
2.622815e+003,4.884595e+001
2.623780e+003,5.056494e+001
2.624744e+003,4.979443e+001
2.625708e+003,4.808350e+001
2.626672e+003,4.613782e+001
2.627637e+003,4.475049e+001
2.628601e+003,4.407727e+001
2.629565e+003,4.359924e+001
2.630529e+003,4.296143e+001
2.631494e+003,4.339551e+001
2.632458e+003,4.626135e+001
2.633422e+003,4.905823e+001
2.634386e+003,4.822998e+001
2.635351e+003,4.581689e+001
2.636315e+003,4.475110e+001
2.637279e+003,4.448669e+001
2.638243e+003,4.408130e+001
2.639208e+003,4.433411e+001
2.640172e+003,4.579126e+001
2.641136e+003,4.692859e+001
2.642100e+003,4.629480e+001
2.643064e+003,4.423218e+001
2.644029e+003,4.201526e+001
2.644993e+003,4.020630e+001
2.645957e+003,4.002832e+001
2.646921e+003,4.152686e+001
2.647885e+003,4.196704e+001
2.648850e+003,4.121130e+001
2.649814e+003,4.013477e+001
2.650778e+003,3.909045e+001
2.651742e+003,4.061414e+001
2.652707e+003,4.404102e+001
2.653671e+003,4.500623e+001
2.654635e+003,4.335278e+001
2.655599e+003,4.224194e+001
2.656563e+003,4.139380e+001
2.657528e+003,4.170605e+001
2.658492e+003,4.343201e+001
2.659456e+003,4.310828e+001
2.660420e+003,4.148083e+001
2.661385e+003,4.046155e+001
2.662349e+003,4.024731e+001
2.663313e+003,4.057117e+001
2.664277e+003,4.096667e+001
2.665242e+003,4.073315e+001
2.666206e+003,3.973633e+001
2.667170e+003,3.927063e+001
2.668134e+003,4.046436e+001
2.669099e+003,4.068616e+001
2.670063e+003,3.694910e+001
2.671027e+003,3.416260e+001
2.671991e+003,3.530542e+001
2.672956e+003,3.707178e+001
2.673920e+003,3.905896e+001
2.674884e+003,3.949512e+001
2.675848e+003,3.647742e+001
2.676813e+003,3.312720e+001
2.677777e+003,3.230945e+001
2.678741e+003,3.232104e+001
2.679705e+003,3.133582e+001
2.680669e+003,3.079626e+001
2.681634e+003,3.095154e+001
2.682598e+003,3.090295e+001
2.683562e+003,3.289673e+001
2.684526e+003,3.481909e+001
2.685491e+003,3.180994e+001
2.686455e+003,2.794678e+001
2.687419e+003,2.853699e+001
2.688383e+003,3.034106e+001
2.689348e+003,2.758887e+001
2.690312e+003,2.223633e+001
2.691276e+003,2.201660e+001
2.692240e+003,2.760095e+001
2.693205e+003,3.052905e+001
2.694169e+003,2.944580e+001
2.695133e+003,2.728430e+001
2.696097e+003,2.451331e+001
2.697062e+003,2.364880e+001
2.698026e+003,2.492395e+001
2.698990e+003,2.432397e+001
2.699954e+003,2.132129e+001
2.700918e+003,1.911609e+001
2.701883e+003,1.860193e+001
2.702847e+003,2.027185e+001
2.703811e+003,2.657959e+001
2.704775e+003,2.859265e+001
2.705740e+003,2.117993e+001
2.706704e+003,1.710388e+001
2.707668e+003,1.715735e+001
2.708632e+003,1.827710e+001
2.709596e+003,1.978259e+001
2.710561e+003,2.059583e+001
2.711525e+003,2.061169e+001
2.712489e+003,2.045923e+001
2.713453e+003,2.012231e+001
2.714417e+003,1.923999e+001
2.715382e+003,1.786182e+001
2.716346e+003,1.685547e+001
2.717310e+003,1.856311e+001
2.718274e+003,2.046692e+001
2.719239e+003,1.842065e+001
2.720203e+003,1.667529e+001
2.721167e+003,1.774927e+001
2.722131e+003,1.860596e+001
2.723096e+003,1.848987e+001
2.724060e+003,1.781262e+001
2.725024e+003,1.635254e+001
2.725988e+003,1.529089e+001
2.726953e+003,1.705017e+001
2.727917e+003,1.985986e+001
2.728881e+003,1.813477e+001
2.729845e+003,1.465723e+001
2.730810e+003,1.492114e+001
2.731774e+003,1.566077e+001
2.732738e+003,1.527148e+001
2.733702e+003,1.542627e+001
2.734667e+003,1.472144e+001
2.735631e+003,1.292798e+001
2.736595e+003,1.120642e+001
2.737559e+003,1.015149e+001
2.738523e+003,1.156714e+001
2.739488e+003,1.466785e+001
2.740452e+003,1.368628e+001
2.741416e+003,1.026587e+001
2.742380e+003,9.307251e+000
2.743345e+003,9.897827e+000
2.744309e+003,1.080164e+001
2.745273e+003,1.148596e+001
2.746237e+003,1.133923e+001
2.747202e+003,1.070972e+001
2.748166e+003,1.072058e+001
2.749130e+003,1.171558e+001
2.750094e+003,1.253455e+001
2.751059e+003,1.279578e+001
2.752023e+003,1.284021e+001
2.752987e+003,1.238440e+001
2.753951e+003,1.205664e+001
2.754916e+003,1.208862e+001
2.755880e+003,1.097412e+001
2.756844e+003,9.340210e+000
2.757808e+003,1.042383e+001
2.758772e+003,1.341162e+001
2.759737e+003,1.374170e+001
2.760701e+003,1.086841e+001
2.761665e+003,9.687622e+000
2.762629e+003,1.171826e+001
2.763594e+003,1.327271e+001
2.764558e+003,1.413855e+001
2.765522e+003,1.324951e+001
2.766486e+003,1.095801e+001
2.767450e+003,8.848389e+000
2.768415e+003,7.770386e+000
2.769379e+003,8.908325e+000
2.770343e+003,1.094250e+001
2.771307e+003,1.147876e+001
2.772271e+003,1.081726e+001
2.773236e+003,1.086450e+001
2.774200e+003,1.399756e+001
2.775164e+003,1.576208e+001
2.776128e+003,7.750244e+000
2.777093e+003,3.827881e+000
2.778057e+003,1.032043e+001
2.779021e+003,1.147266e+001
2.779985e+003,5.073730e+000
2.780950e+003,2.398682e+000
2.781914e+003,4.446167e+000
2.782878e+003,6.820801e+000
2.783842e+003,8.974976e+000
2.784807e+003,9.294434e+000
2.785771e+003,6.130615e+000
2.786735e+003,5.787354e+000
2.787699e+003,1.291809e+001
2.788664e+003,1.700293e+001
2.789628e+003,1.442285e+001
2.790592e+003,1.145752e+001
2.791556e+003,9.806274e+000
2.792521e+003,9.249146e+000
2.793485e+003,9.363403e+000
2.794449e+003,9.392578e+000
2.795413e+003,9.595215e+000
2.796377e+003,1.038782e+001
2.797342e+003,1.167615e+001
2.798306e+003,1.283167e+001
2.799270e+003,1.347131e+001
2.800234e+003,1.359436e+001
2.801199e+003,1.130566e+001
2.802163e+003,9.465210e+000
2.803127e+003,9.738281e+000
2.804091e+003,9.628174e+000
2.805056e+003,9.293579e+000
2.806020e+003,9.677124e+000
2.806984e+003,8.604858e+000
2.807948e+003,6.177368e+000
2.808913e+003,7.137451e+000
2.809877e+003,8.621948e+000
2.810841e+003,6.035645e+000
2.811805e+003,5.705322e+000
2.812770e+003,9.605713e+000
2.813734e+003,1.064221e+001
2.814698e+003,8.295898e+000
2.815662e+003,7.507080e+000
2.816626e+003,1.011377e+001
2.817591e+003,1.149084e+001
2.818555e+003,7.625854e+000
2.819519e+003,2.955200e+000
2.820483e+003,2.713257e+000
2.821448e+003,4.303833e+000
2.822412e+003,6.107544e+000
2.823376e+003,7.351318e+000
2.824340e+003,7.542725e+000
2.825304e+003,7.448242e+000
2.826269e+003,6.523804e+000
2.827233e+003,5.437988e+000
2.828197e+003,4.673096e+000
2.829161e+003,4.344482e+000
2.830125e+003,4.945313e+000
2.831090e+003,6.009277e+000
2.832054e+003,6.950073e+000
2.833018e+003,7.997314e+000
2.833982e+003,8.390503e+000
2.834947e+003,7.953369e+000
2.835911e+003,6.664673e+000
2.836875e+003,6.736694e+000
2.837839e+003,1.062415e+001
2.838804e+003,1.449695e+001
2.839768e+003,1.530920e+001
2.840732e+003,1.367139e+001
2.841696e+003,1.086707e+001
2.842661e+003,7.786499e+000
2.843625e+003,5.639526e+000
2.844589e+003,6.062378e+000
2.845553e+003,1.137659e+001
2.846518e+003,1.586707e+001
2.847482e+003,1.190881e+001
2.848446e+003,6.824951e+000
2.849410e+003,1.107642e+001
2.850375e+003,1.645532e+001
2.851339e+003,1.462793e+001
2.852303e+003,9.944458e+000
2.853267e+003,8.096558e+000
2.854231e+003,8.305908e+000
2.855196e+003,9.876221e+000
2.856160e+003,1.156848e+001
2.857124e+003,1.189099e+001
2.858088e+003,1.183325e+001
2.859053e+003,1.164136e+001
2.860017e+003,1.168396e+001
2.860981e+003,1.285815e+001
2.861945e+003,1.238721e+001
2.862910e+003,8.271362e+000
2.863874e+003,4.700928e+000
2.864838e+003,5.790771e+000
2.865802e+003,8.738403e+000
2.866767e+003,9.419556e+000
2.867731e+003,8.880371e+000
2.868695e+003,1.021790e+001
2.869659e+003,1.208325e+001
2.870624e+003,1.226270e+001
2.871588e+003,1.169739e+001
2.872552e+003,9.769287e+000
2.873516e+003,8.529541e+000
2.874480e+003,1.103381e+001
2.875445e+003,1.390747e+001
2.876409e+003,1.168250e+001
2.877373e+003,7.651123e+000
2.878337e+003,7.317871e+000
2.879302e+003,7.739136e+000
2.880266e+003,6.300537e+000
2.881230e+003,5.345825e+000
2.882194e+003,7.190796e+000
2.883158e+003,9.302979e+000
2.884123e+003,8.644531e+000
2.885087e+003,7.820435e+000
2.886051e+003,9.770996e+000
2.887015e+003,1.204724e+001
2.887979e+003,1.080896e+001
2.888944e+003,8.479980e+000
2.889908e+003,8.934692e+000
2.890872e+003,9.283203e+000
2.891836e+003,7.065430e+000
2.892801e+003,5.040527e+000
2.893765e+003,5.350952e+000
2.894729e+003,5.944092e+000
2.895693e+003,5.285034e+000
2.896658e+003,5.528320e+000
2.897622e+003,7.969238e+000
2.898586e+003,9.505615e+000
2.899550e+003,7.328613e+000
2.900515e+003,4.536499e+000
2.901479e+003,5.183716e+000
2.902443e+003,6.181152e+000
2.903407e+003,2.861450e+000
2.904372e+003,0.000000e+000
2.905336e+003,2.419678e+000
2.906300e+003,5.746826e+000
2.907264e+003,7.492554e+000
2.908229e+003,7.403931e+000
2.909193e+003,5.814941e+000
2.910157e+003,4.477417e+000
2.911121e+003,4.578125e+000
2.912085e+003,5.765015e+000
2.913050e+003,7.720459e+000
2.914014e+003,8.232910e+000
2.914978e+003,6.623901e+000
2.915942e+003,5.339722e+000
2.916907e+003,5.012573e+000
2.917871e+003,5.177856e+000
2.918835e+003,5.625732e+000
2.919799e+003,6.862061e+000
2.920764e+003,9.066650e+000
2.921728e+003,9.985596e+000
2.922692e+003,6.971924e+000
2.923656e+003,4.429565e+000
2.924621e+003,5.505493e+000
2.925585e+003,7.843262e+000
2.926549e+003,1.243262e+001
2.927513e+003,1.418555e+001
2.928478e+003,1.131812e+001
2.929442e+003,8.545532e+000
2.930406e+003,7.652100e+000
2.931370e+003,7.207764e+000
2.932334e+003,6.907227e+000
2.933299e+003,8.026489e+000
2.934263e+003,1.133533e+001
2.935227e+003,1.431543e+001
2.936191e+003,1.610742e+001
2.937156e+003,1.634155e+001
2.938120e+003,1.518054e+001
2.939084e+003,1.415149e+001
2.940048e+003,1.343518e+001
2.941012e+003,1.201978e+001
2.941977e+003,9.817017e+000
2.942941e+003,8.097046e+000
2.943905e+003,7.292847e+000
2.944869e+003,7.446045e+000
2.945833e+003,9.631714e+000
2.946798e+003,1.123975e+001
2.947762e+003,1.222400e+001
2.948726e+003,1.162256e+001
2.949690e+003,9.328247e+000
2.950655e+003,7.944824e+000
2.951619e+003,7.593384e+000
2.952583e+003,8.099487e+000
2.953547e+003,9.167603e+000
2.954512e+003,8.577881e+000
2.955476e+003,6.378906e+000
2.956440e+003,7.106934e+000
2.957404e+003,1.057080e+001
2.958369e+003,1.138843e+001
2.959333e+003,9.886230e+000
2.960297e+003,7.530151e+000
2.961261e+003,5.328491e+000
2.962226e+003,4.501953e+000
2.963190e+003,4.452881e+000
2.964154e+003,5.772461e+000
2.965118e+003,8.299561e+000
2.966083e+003,8.767822e+000
2.967047e+003,7.571655e+000
2.968011e+003,8.360352e+000
2.968975e+003,1.045056e+001
2.969939e+003,1.206689e+001
2.970904e+003,1.344678e+001
2.971868e+003,1.423438e+001
2.972832e+003,1.402283e+001
2.973796e+003,1.115442e+001
2.974761e+003,8.066040e+000
2.975725e+003,1.009314e+001
2.976689e+003,1.319495e+001
2.977653e+003,1.052942e+001
2.978618e+003,5.042358e+000
2.979582e+003,3.926147e+000
2.980546e+003,5.637329e+000
2.981510e+003,7.553345e+000
2.982475e+003,8.890015e+000
2.983439e+003,8.143921e+000
2.984403e+003,7.430908e+000
2.985367e+003,9.467773e+000
2.986332e+003,1.184021e+001
2.987296e+003,1.248755e+001
2.988260e+003,1.219458e+001
2.989224e+003,1.189368e+001
2.990188e+003,1.140808e+001
2.991153e+003,1.070886e+001
2.992117e+003,1.042468e+001
2.993081e+003,1.089001e+001
2.994045e+003,1.132166e+001
2.995010e+003,1.123499e+001
2.995974e+003,1.059253e+001
2.996938e+003,9.548218e+000
2.997902e+003,9.099609e+000
2.998866e+003,9.706665e+000
2.999831e+003,1.108472e+001
3.000795e+003,1.344812e+001
3.001759e+003,1.426355e+001
3.002723e+003,1.061804e+001
3.003688e+003,7.662598e+000
3.004652e+003,6.537354e+000
3.005616e+003,7.064331e+000
3.006580e+003,8.896118e+000
3.007544e+003,1.066675e+001
3.008509e+003,1.194128e+001
3.009473e+003,1.281641e+001
3.010437e+003,1.347803e+001
3.011401e+003,1.352283e+001
3.012366e+003,1.213733e+001
3.013330e+003,1.101746e+001
3.014294e+003,1.043433e+001
3.015258e+003,1.057947e+001
3.016223e+003,1.157947e+001
3.017187e+003,1.358215e+001
3.018151e+003,1.573279e+001
3.019115e+003,1.435364e+001
3.020080e+003,1.088123e+001
3.021044e+003,1.218713e+001
3.022008e+003,1.736902e+001
3.022972e+003,1.782666e+001
3.023937e+003,1.483984e+001
3.024901e+003,1.347705e+001
3.025865e+003,1.360925e+001
3.026829e+003,1.307532e+001
3.027793e+003,1.204163e+001
3.028758e+003,1.302271e+001
3.029722e+003,1.505908e+001
3.030686e+003,1.560425e+001
3.031650e+003,1.536304e+001
3.032615e+003,1.608228e+001
3.033579e+003,1.713574e+001
3.034543e+003,1.571216e+001
3.035507e+003,1.375989e+001
3.036472e+003,1.639368e+001
3.037436e+003,1.870422e+001
3.038400e+003,1.607349e+001
3.039364e+003,1.337988e+001
3.040329e+003,1.236316e+001
3.041293e+003,1.301086e+001
3.042257e+003,1.567554e+001
3.043221e+003,1.760596e+001
3.044186e+003,1.692871e+001
3.045150e+003,1.625110e+001
3.046114e+003,1.744763e+001
3.047078e+003,1.844580e+001
3.048042e+003,1.706335e+001
3.049007e+003,1.663074e+001
3.049971e+003,1.878845e+001
3.050935e+003,1.913525e+001
3.051899e+003,1.708081e+001
3.052864e+003,1.637695e+001
3.053828e+003,1.788000e+001
3.054792e+003,1.937024e+001
3.055756e+003,2.000842e+001
3.056720e+003,1.994177e+001
3.057685e+003,1.876257e+001
3.058649e+003,1.796765e+001
3.059613e+003,1.754541e+001
3.060577e+003,1.862915e+001
3.061542e+003,2.109717e+001
3.062506e+003,2.218372e+001
3.063470e+003,2.215076e+001
3.064434e+003,2.298755e+001
3.065398e+003,2.402051e+001
3.066363e+003,2.405151e+001
3.067327e+003,2.356384e+001
3.068291e+003,2.055933e+001
3.069255e+003,1.655981e+001
3.070220e+003,1.970105e+001
3.071184e+003,2.512219e+001
3.072148e+003,2.481067e+001
3.073112e+003,2.291455e+001
3.074077e+003,2.402759e+001
3.075041e+003,2.557495e+001
3.076005e+003,2.597498e+001
3.076969e+003,2.616809e+001
3.077934e+003,2.688464e+001
3.078898e+003,2.661694e+001
3.079862e+003,2.281519e+001
3.080826e+003,1.926550e+001
3.081791e+003,1.867517e+001
3.082755e+003,1.937659e+001
3.083719e+003,2.052722e+001
3.084683e+003,2.285095e+001
3.085647e+003,2.672339e+001
3.086612e+003,2.849133e+001
3.087576e+003,2.581958e+001
3.088540e+003,2.441113e+001
3.089504e+003,2.952832e+001
3.090469e+003,3.146436e+001
3.091433e+003,2.657507e+001
3.092397e+003,2.428809e+001
3.093361e+003,2.482227e+001
3.094326e+003,2.675891e+001
3.095290e+003,2.938293e+001
3.096254e+003,3.039978e+001
3.097218e+003,2.951099e+001
3.098183e+003,2.832837e+001
3.099147e+003,2.782727e+001
3.100111e+003,2.872705e+001
3.101075e+003,3.062427e+001
3.102040e+003,3.063867e+001
3.103004e+003,2.944177e+001
3.103968e+003,3.037024e+001
3.104932e+003,3.156934e+001
3.105896e+003,2.904175e+001
3.106861e+003,2.556824e+001
3.107825e+003,2.457874e+001
3.108789e+003,2.538599e+001
3.109753e+003,2.737476e+001
3.110718e+003,2.939673e+001
3.111682e+003,3.018091e+001
3.112646e+003,3.048584e+001
3.113610e+003,3.062170e+001
3.114574e+003,3.076025e+001
3.115539e+003,3.041882e+001
3.116503e+003,3.012268e+001
3.117467e+003,3.009473e+001
3.118431e+003,3.185046e+001
3.119396e+003,3.586267e+001
3.120360e+003,3.867188e+001
3.121324e+003,3.826257e+001
3.122288e+003,3.609192e+001
3.123252e+003,3.054285e+001
3.124217e+003,2.900244e+001
3.125181e+003,3.222205e+001
3.126145e+003,3.411658e+001
3.127109e+003,3.440942e+001
3.128074e+003,3.464563e+001
3.129038e+003,3.446594e+001
3.130002e+003,3.365088e+001
3.130966e+003,3.235095e+001
3.131931e+003,3.036658e+001
3.132895e+003,2.912439e+001
3.133859e+003,3.195715e+001
3.134823e+003,3.644348e+001
3.135788e+003,3.828943e+001
3.136752e+003,3.892236e+001
3.137716e+003,4.080505e+001
3.138680e+003,4.262122e+001
3.139645e+003,4.189722e+001
3.140609e+003,3.967090e+001
3.141573e+003,3.775745e+001
3.142537e+003,3.627930e+001
3.143501e+003,3.430444e+001
3.144466e+003,3.342786e+001
3.145430e+003,3.602832e+001
3.146394e+003,3.810425e+001
3.147358e+003,3.872754e+001
3.148323e+003,3.916418e+001
3.149287e+003,3.925220e+001
3.150251e+003,3.933887e+001
3.151215e+003,3.937085e+001
3.152180e+003,3.733789e+001
3.153144e+003,3.331543e+001
3.154108e+003,3.299634e+001
3.155072e+003,3.662793e+001
3.156037e+003,4.013159e+001
3.157001e+003,4.343152e+001
3.157965e+003,4.352161e+001
3.158929e+003,4.203809e+001
3.159894e+003,4.033337e+001
3.160858e+003,3.889954e+001
3.161822e+003,4.050427e+001
3.162786e+003,4.289539e+001
3.163750e+003,4.242859e+001
3.164715e+003,4.107715e+001
3.165679e+003,4.307849e+001
3.166643e+003,4.584387e+001
3.167607e+003,4.468469e+001
3.168572e+003,4.296643e+001
3.169536e+003,4.260986e+001
3.170500e+003,4.276172e+001
3.171464e+003,4.379480e+001
3.172428e+003,4.539014e+001
3.173393e+003,4.681750e+001
3.174357e+003,4.651428e+001
3.175321e+003,4.356396e+001
3.176285e+003,4.309998e+001
3.177250e+003,5.018213e+001
3.178214e+003,5.191785e+001
3.179178e+003,4.853870e+001
3.180142e+003,4.753345e+001
3.181106e+003,4.827661e+001
3.182071e+003,4.935400e+001
3.183035e+003,5.017334e+001
3.183999e+003,4.923962e+001
3.184963e+003,4.771545e+001
3.185928e+003,4.723462e+001
3.186892e+003,4.706677e+001
3.187856e+003,4.735034e+001
3.188820e+003,4.838623e+001
3.189785e+003,5.102222e+001
3.190749e+003,5.311499e+001
3.191713e+003,5.215222e+001
3.192677e+003,5.104395e+001
3.193642e+003,5.116248e+001
3.194606e+003,5.281128e+001
3.195570e+003,5.604028e+001
3.196534e+003,5.637280e+001
3.197499e+003,4.931897e+001
3.198463e+003,4.463489e+001
3.199427e+003,4.737097e+001
3.200391e+003,4.966614e+001
3.201355e+003,5.117322e+001
3.202320e+003,5.174158e+001
3.203284e+003,5.159741e+001
3.204248e+003,5.038013e+001
3.205212e+003,4.877856e+001
3.206177e+003,5.042957e+001
3.207141e+003,5.441260e+001
3.208105e+003,5.624292e+001
3.209069e+003,5.666736e+001
3.210034e+003,5.656262e+001
3.210998e+003,5.547961e+001
3.211962e+003,5.319824e+001
3.212926e+003,5.139661e+001
3.213891e+003,5.097229e+001
3.214855e+003,5.227673e+001
3.215819e+003,5.553455e+001
3.216783e+003,5.716357e+001
3.217748e+003,5.480029e+001
3.218712e+003,5.223474e+001
3.219676e+003,5.119678e+001
3.220640e+003,5.102747e+001
3.221604e+003,5.219873e+001
3.222569e+003,5.278235e+001
3.223533e+003,5.319812e+001
3.224497e+003,5.612427e+001
3.225461e+003,6.019556e+001
3.226426e+003,6.081470e+001
3.227390e+003,5.826282e+001
3.228354e+003,5.622864e+001
3.229318e+003,5.495813e+001
3.230282e+003,5.692981e+001
3.231247e+003,6.018311e+001
3.232211e+003,6.011572e+001
3.233175e+003,5.907178e+001
3.234139e+003,5.690247e+001
3.235104e+003,5.578882e+001
3.236068e+003,5.792249e+001
3.237032e+003,5.871899e+001
3.237996e+003,5.559558e+001
3.238960e+003,5.489734e+001
3.239925e+003,6.210486e+001
3.240889e+003,6.625476e+001
3.241853e+003,5.836707e+001
3.242817e+003,5.642224e+001
3.243782e+003,6.129077e+001
3.244746e+003,6.425208e+001
3.245710e+003,6.490991e+001
3.246674e+003,6.540356e+001
3.247639e+003,6.545544e+001
3.248603e+003,6.462952e+001
3.249567e+003,6.348804e+001
3.250531e+003,6.045740e+001
3.251496e+003,5.698682e+001
3.252460e+003,6.060120e+001
3.253424e+003,6.583411e+001
3.254388e+003,6.680481e+001
3.255353e+003,6.616016e+001
3.256317e+003,6.322314e+001
3.257281e+003,6.146875e+001
3.258245e+003,6.313269e+001
3.259209e+003,6.427539e+001
3.260174e+003,6.234290e+001
3.261138e+003,6.120862e+001
3.262102e+003,6.337390e+001
3.263066e+003,6.523572e+001
3.264031e+003,6.674719e+001
3.264995e+003,6.820459e+001
3.265959e+003,6.899963e+001
3.266923e+003,6.652478e+001
3.267888e+003,6.285547e+001
3.268852e+003,6.296741e+001
3.269816e+003,6.532703e+001
3.270780e+003,6.664185e+001
3.271745e+003,6.697607e+001
3.272709e+003,6.640356e+001
3.273673e+003,6.665881e+001
3.274637e+003,6.974634e+001
3.275602e+003,7.306885e+001
3.276566e+003,7.532910e+001
3.277530e+003,7.509509e+001
3.278494e+003,7.227979e+001
3.279458e+003,7.078247e+001
3.280423e+003,7.212805e+001
3.281387e+003,7.308643e+001
3.282351e+003,7.216675e+001
3.283315e+003,7.223560e+001
3.284280e+003,7.350745e+001
3.285244e+003,7.336353e+001
3.286208e+003,7.235327e+001
3.287172e+003,7.224133e+001
3.288136e+003,7.281628e+001
3.289101e+003,7.353552e+001
3.290065e+003,7.395752e+001
3.291029e+003,7.377881e+001
3.291993e+003,7.426245e+001
3.292958e+003,7.741528e+001
3.293922e+003,8.040857e+001
3.294886e+003,8.043164e+001
3.295850e+003,7.955139e+001
3.296814e+003,7.775073e+001
3.297779e+003,7.761389e+001
3.298743e+003,7.941309e+001
3.299707e+003,8.006335e+001
3.300671e+003,7.923071e+001
3.301636e+003,7.958997e+001
3.302600e+003,8.140820e+001
3.303564e+003,8.262439e+001
3.304528e+003,8.352661e+001
3.305493e+003,8.262512e+001
3.306457e+003,8.104578e+001
3.307421e+003,8.174255e+001
3.308385e+003,8.268823e+001
3.309350e+003,8.117004e+001
3.310314e+003,8.025464e+001
3.311278e+003,8.149585e+001
3.312242e+003,8.384558e+001
3.313207e+003,8.756909e+001
3.314171e+003,8.996765e+001
3.315135e+003,8.588965e+001
3.316099e+003,8.386438e+001
3.317063e+003,8.492578e+001
3.318028e+003,8.449231e+001
3.318992e+003,8.377869e+001
3.319956e+003,8.796851e+001
3.320920e+003,9.393982e+001
3.321885e+003,9.246997e+001
3.322849e+003,8.716821e+001
3.323813e+003,8.470288e+001
3.324777e+003,8.453394e+001
3.325742e+003,8.872461e+001
3.326706e+003,9.272217e+001
3.327670e+003,9.121106e+001
3.328634e+003,8.874438e+001
3.329599e+003,8.643579e+001
3.330563e+003,8.661011e+001
3.331527e+003,8.944763e+001
3.332491e+003,9.260681e+001
3.333456e+003,9.499402e+001
3.334420e+003,9.478564e+001
3.335384e+003,9.300635e+001
3.336348e+003,9.244104e+001
3.337313e+003,9.218359e+001
3.338277e+003,9.105005e+001
3.339241e+003,8.960400e+001
3.340205e+003,9.060767e+001
3.341169e+003,9.293945e+001
3.342134e+003,9.426428e+001
3.343098e+003,9.563538e+001
3.344062e+003,9.860889e+001
3.345026e+003,1.006418e+002
3.345990e+003,9.786353e+001
3.346955e+003,9.620142e+001
3.347919e+003,9.722937e+001
3.348883e+003,9.625171e+001
3.349847e+003,9.412463e+001
3.350812e+003,9.397302e+001
3.351776e+003,9.560156e+001
3.352740e+003,9.746521e+001
3.353704e+003,9.919043e+001
3.354668e+003,1.015770e+002
3.355633e+003,1.038854e+002
3.356597e+003,1.026074e+002
3.357561e+003,1.004316e+002
3.358525e+003,1.020518e+002
3.359490e+003,1.033999e+002
3.360454e+003,1.026680e+002
3.361418e+003,1.024789e+002
3.362382e+003,1.032069e+002
3.363347e+003,1.045609e+002
3.364311e+003,1.061472e+002
3.365275e+003,1.073917e+002
3.366239e+003,1.083307e+002
3.367204e+003,1.060037e+002
3.368168e+003,1.020435e+002
3.369132e+003,1.028013e+002
3.370096e+003,1.054972e+002
3.371061e+003,1.053768e+002
3.372025e+003,1.043422e+002
3.372989e+003,1.052833e+002
3.373953e+003,1.069742e+002
3.374917e+003,1.083269e+002
3.375882e+003,1.091942e+002
3.376846e+003,1.083398e+002
3.377810e+003,1.085927e+002
3.378774e+003,1.113691e+002
3.379739e+003,1.115793e+002
3.380703e+003,1.096437e+002
3.381667e+003,1.085315e+002
3.382631e+003,1.088286e+002
3.383596e+003,1.118400e+002
3.384560e+003,1.154431e+002
3.385524e+003,1.149208e+002
3.386488e+003,1.114937e+002
3.387453e+003,1.076385e+002
3.388417e+003,1.052367e+002
3.389381e+003,1.073324e+002
3.390345e+003,1.094620e+002
3.391310e+003,1.098401e+002
3.392274e+003,1.077238e+002
3.393238e+003,1.044683e+002
3.394202e+003,1.063914e+002
3.395167e+003,1.133700e+002
3.396131e+003,1.152996e+002
3.397095e+003,1.121472e+002
3.398059e+003,1.115277e+002
3.399023e+003,1.128877e+002
3.399988e+003,1.106392e+002
3.400952e+003,1.082955e+002
3.401916e+003,1.105479e+002
3.402880e+003,1.131478e+002
3.403844e+003,1.142982e+002
3.404809e+003,1.146460e+002
3.405773e+003,1.144888e+002
3.406737e+003,1.137958e+002
3.407701e+003,1.127341e+002
3.408666e+003,1.138669e+002
3.409630e+003,1.169253e+002
3.410594e+003,1.157311e+002
3.411558e+003,1.119315e+002
3.412522e+003,1.117192e+002
3.413487e+003,1.138618e+002
3.414451e+003,1.154515e+002
3.415415e+003,1.162991e+002
3.416379e+003,1.160165e+002
3.417344e+003,1.156207e+002
3.418308e+003,1.166749e+002
3.419272e+003,1.169532e+002
3.420236e+003,1.150299e+002
3.421201e+003,1.149414e+002
3.422165e+003,1.169147e+002
3.423129e+003,1.175801e+002
3.424093e+003,1.166006e+002
3.425058e+003,1.144218e+002
3.426022e+003,1.124773e+002
3.426986e+003,1.139323e+002
3.427950e+003,1.169872e+002
3.428915e+003,1.184521e+002
3.429879e+003,1.190933e+002
3.430843e+003,1.181809e+002
3.431807e+003,1.171003e+002
3.432771e+003,1.161552e+002
3.433736e+003,1.163904e+002
3.434700e+003,1.176431e+002
3.435664e+003,1.180845e+002
3.436628e+003,1.178846e+002
3.437593e+003,1.170553e+002
3.438557e+003,1.155173e+002
3.439521e+003,1.170165e+002
3.440485e+003,1.197527e+002
3.441450e+003,1.211835e+002
3.442414e+003,1.213146e+002
3.443378e+003,1.180637e+002
3.444342e+003,1.159894e+002
3.445307e+003,1.181388e+002
3.446271e+003,1.215708e+002
3.447235e+003,1.235919e+002
3.448199e+003,1.236299e+002
3.449164e+003,1.213705e+002
3.450128e+003,1.196357e+002
3.451092e+003,1.193884e+002
3.452056e+003,1.203458e+002
3.453021e+003,1.206335e+002
3.453985e+003,1.181705e+002
3.454949e+003,1.166512e+002
3.455913e+003,1.181960e+002
3.456877e+003,1.206135e+002
3.457842e+003,1.230894e+002
3.458806e+003,1.244240e+002
3.459770e+003,1.222081e+002
3.460734e+003,1.216804e+002
3.461698e+003,1.221599e+002
3.462663e+003,1.219570e+002
3.463627e+003,1.220020e+002
3.464591e+003,1.227549e+002
3.465555e+003,1.239910e+002
3.466520e+003,1.261908e+002
3.467484e+003,1.273248e+002
3.468448e+003,1.250017e+002
3.469412e+003,1.219089e+002
3.470376e+003,1.189088e+002
3.471341e+003,1.189662e+002
3.472305e+003,1.222932e+002
3.473269e+003,1.222498e+002
3.474233e+003,1.191532e+002
3.475198e+003,1.180548e+002
3.476162e+003,1.197638e+002
3.477126e+003,1.220994e+002
3.478090e+003,1.237628e+002
3.479055e+003,1.236127e+002
3.480019e+003,1.228776e+002
3.480983e+003,1.250862e+002
3.481947e+003,1.267600e+002
3.482912e+003,1.251224e+002
3.483876e+003,1.222367e+002
3.484840e+003,1.189060e+002
3.485804e+003,1.198831e+002
3.486769e+003,1.257142e+002
3.487733e+003,1.296100e+002
3.488697e+003,1.310221e+002
3.489661e+003,1.295897e+002
3.490625e+003,1.268026e+002
3.491590e+003,1.276375e+002
3.492554e+003,1.297562e+002
3.493518e+003,1.323489e+002
3.494482e+003,1.335300e+002
3.495447e+003,1.319728e+002
3.496411e+003,1.296904e+002
3.497375e+003,1.280469e+002
3.498339e+003,1.277380e+002
3.499304e+003,1.291088e+002
3.500268e+003,1.301593e+002
