9.941663e+001,0.000000e+000
1.003809e+002,2.047736e+002
1.013451e+002,2.037691e+002
1.023093e+002,2.040769e+002
1.032736e+002,2.056039e+002
1.042378e+002,2.088064e+002
1.052020e+002,2.116818e+002
1.061663e+002,2.135252e+002
1.071305e+002,2.140906e+002
1.080947e+002,2.118688e+002
1.090590e+002,2.068048e+002
1.100232e+002,2.010238e+002
1.109874e+002,1.958164e+002
1.119517e+002,1.919264e+002
1.129159e+002,1.894995e+002
1.138801e+002,1.889577e+002
1.148444e+002,1.899598e+002
1.158086e+002,1.917152e+002
1.167728e+002,1.921857e+002
1.177371e+002,1.913251e+002
1.187013e+002,1.905918e+002
1.196655e+002,1.904668e+002
1.206298e+002,1.910005e+002
1.215940e+002,1.904053e+002
1.225582e+002,1.869796e+002
1.235225e+002,1.838475e+002
1.244867e+002,1.828810e+002
1.254509e+002,1.854103e+002
1.264152e+002,1.877454e+002
1.273794e+002,1.875956e+002
1.283436e+002,1.861255e+002
1.293079e+002,1.842632e+002
1.302721e+002,1.829214e+002
1.312363e+002,1.817872e+002
1.322006e+002,1.802196e+002
1.331648e+002,1.783440e+002
1.341290e+002,1.764496e+002
1.350933e+002,1.751514e+002
1.360575e+002,1.745034e+002
1.370217e+002,1.740311e+002
1.379860e+002,1.739269e+002
1.389502e+002,1.742068e+002
1.399144e+002,1.736591e+002
1.408787e+002,1.708977e+002
1.418429e+002,1.683666e+002
1.428071e+002,1.671860e+002
1.437714e+002,1.678999e+002
1.447356e+002,1.686523e+002
1.456998e+002,1.679181e+002
1.466641e+002,1.669326e+002
1.476283e+002,1.667565e+002
1.485925e+002,1.684415e+002
1.495568e+002,1.704590e+002
1.505210e+002,1.702878e+002
1.514852e+002,1.685035e+002
1.524495e+002,1.661786e+002
1.534137e+002,1.651306e+002
1.543779e+002,1.659378e+002
1.553422e+002,1.660527e+002
1.563064e+002,1.651883e+002
1.572706e+002,1.634375e+002
1.582349e+002,1.613964e+002
1.591991e+002,1.578660e+002
1.601633e+002,1.549329e+002
1.611276e+002,1.533896e+002
1.620918e+002,1.533738e+002
1.630560e+002,1.532968e+002
1.640203e+002,1.519557e+002
1.649845e+002,1.504895e+002
1.659487e+002,1.494563e+002
1.669130e+002,1.492247e+002
1.678772e+002,1.497521e+002
1.688414e+002,1.510792e+002
1.698057e+002,1.525786e+002
1.707699e+002,1.533647e+002
1.717341e+002,1.524964e+002
1.726984e+002,1.498308e+002
1.736626e+002,1.484696e+002
1.746268e+002,1.485748e+002
1.755911e+002,1.494429e+002
1.765553e+002,1.497887e+002
1.775195e+002,1.486153e+002
1.784838e+002,1.476236e+002
1.794480e+002,1.475135e+002
1.804122e+002,1.482166e+002
1.813765e+002,1.489830e+002
1.823407e+002,1.488835e+002
1.833049e+002,1.482541e+002
1.842692e+002,1.471148e+002
1.852334e+002,1.456328e+002
1.861976e+002,1.441673e+002
1.871619e+002,1.431895e+002
1.881261e+002,1.423775e+002
1.890903e+002,1.416010e+002
1.900546e+002,1.407920e+002
1.910188e+002,1.399716e+002
1.919830e+002,1.396217e+002
1.929473e+002,1.407139e+002
1.939115e+002,1.419487e+002
1.948757e+002,1.417327e+002
1.958400e+002,1.377755e+002
1.968042e+002,1.352122e+002
1.977684e+002,1.358048e+002
1.987327e+002,1.375187e+002
1.996969e+002,1.380499e+002
2.006611e+002,1.354459e+002
2.016254e+002,1.335577e+002
2.025896e+002,1.343227e+002
2.035538e+002,1.367702e+002
2.045181e+002,1.391863e+002
2.054823e+002,1.389172e+002
2.064465e+002,1.366205e+002
2.074108e+002,1.337452e+002
2.083750e+002,1.307341e+002
2.093392e+002,1.280934e+002
2.103035e+002,1.278615e+002
2.112677e+002,1.307594e+002
2.122319e+002,1.337406e+002
2.131962e+002,1.360734e+002
2.141604e+002,1.376300e+002
2.151246e+002,1.379526e+002
2.160889e+002,1.365669e+002
2.170531e+002,1.353842e+002
2.180173e+002,1.352259e+002
2.189816e+002,1.363379e+002
2.199458e+002,1.370764e+002
2.209100e+002,1.364683e+002
2.218743e+002,1.353773e+002
2.228385e+002,1.344345e+002
2.238027e+002,1.341321e+002
2.247670e+002,1.341212e+002
2.257312e+002,1.329457e+002
2.266954e+002,1.307116e+002
2.276597e+002,1.284681e+002
2.286239e+002,1.277318e+002
2.295881e+002,1.300696e+002
2.305524e+002,1.322765e+002
2.315166e+002,1.342107e+002
2.324808e+002,1.354126e+002
2.334451e+002,1.352188e+002
2.344093e+002,1.316582e+002
2.353735e+002,1.290242e+002
2.363378e+002,1.290581e+002
2.373020e+002,1.311506e+002
2.382662e+002,1.334928e+002
2.392305e+002,1.338669e+002
2.401947e+002,1.334569e+002
2.411589e+002,1.330720e+002
2.421232e+002,1.328853e+002
2.430874e+002,1.327466e+002
2.440516e+002,1.320456e+002
2.450159e+002,1.308299e+002
2.459801e+002,1.297709e+002
2.469443e+002,1.291182e+002
2.479086e+002,1.289594e+002
2.488728e+002,1.297596e+002
2.498370e+002,1.318981e+002
2.508013e+002,1.335920e+002
2.517655e+002,1.342643e+002
2.527297e+002,1.338974e+002
2.536940e+002,1.325627e+002
2.546582e+002,1.296474e+002
2.556224e+002,1.272500e+002
2.565867e+002,1.265822e+002
2.575509e+002,1.282355e+002
2.585151e+002,1.310090e+002
2.594794e+002,1.339621e+002
2.604436e+002,1.366056e+002
2.614078e+002,1.379498e+002
2.623721e+002,1.369951e+002
2.633363e+002,1.334601e+002
2.643005e+002,1.313571e+002
2.652648e+002,1.309336e+002
2.662290e+002,1.318158e+002
2.671932e+002,1.336160e+002
2.681575e+002,1.374268e+002
2.691217e+002,1.394392e+002
2.700859e+002,1.385854e+002
2.710502e+002,1.363458e+002
2.720144e+002,1.348011e+002
2.729786e+002,1.355750e+002
2.739429e+002,1.369738e+002
2.749071e+002,1.379764e+002
2.758713e+002,1.384896e+002
2.768356e+002,1.386653e+002
2.777998e+002,1.388461e+002
2.787640e+002,1.391114e+002
2.797283e+002,1.395703e+002
2.806925e+002,1.403650e+002
2.816567e+002,1.414162e+002
2.826210e+002,1.420466e+002
2.835852e+002,1.414199e+002
2.845494e+002,1.413917e+002
2.855137e+002,1.424999e+002
2.864779e+002,1.443190e+002
2.874421e+002,1.447276e+002
2.884064e+002,1.430328e+002
2.893706e+002,1.412193e+002
2.903348e+002,1.393976e+002
2.912991e+002,1.377374e+002
2.922633e+002,1.366932e+002
2.932275e+002,1.374172e+002
2.941918e+002,1.386097e+002
2.951560e+002,1.393550e+002
2.961202e+002,1.392668e+002
2.970845e+002,1.385439e+002
2.980487e+002,1.388058e+002
2.990129e+002,1.400362e+002
2.999772e+002,1.413391e+002
3.009414e+002,1.423014e+002
3.019056e+002,1.429235e+002
3.028699e+002,1.439452e+002
3.038341e+002,1.447851e+002
3.047983e+002,1.454918e+002
3.057626e+002,1.464826e+002
3.067268e+002,1.481869e+002
3.076910e+002,1.492796e+002
3.086553e+002,1.480758e+002
3.096195e+002,1.461225e+002
3.105837e+002,1.446185e+002
3.115480e+002,1.443968e+002
3.125122e+002,1.450072e+002
3.134764e+002,1.456023e+002
3.144407e+002,1.463156e+002
3.154049e+002,1.468736e+002
3.163691e+002,1.468834e+002
3.173334e+002,1.458039e+002
3.182976e+002,1.457637e+002
3.192618e+002,1.474151e+002
3.202261e+002,1.492915e+002
3.211903e+002,1.501147e+002
3.221545e+002,1.495885e+002
3.231188e+002,1.491040e+002
3.240830e+002,1.481310e+002
3.250472e+002,1.474891e+002
3.260115e+002,1.481482e+002
3.269757e+002,1.511092e+002
3.279399e+002,1.534417e+002
3.289042e+002,1.531401e+002
3.298684e+002,1.515272e+002
3.308326e+002,1.499568e+002
3.317969e+002,1.496763e+002
3.327611e+002,1.507191e+002
3.337253e+002,1.519808e+002
3.346896e+002,1.533022e+002
3.356538e+002,1.545636e+002
3.366180e+002,1.556830e+002
3.375823e+002,1.566978e+002
3.385465e+002,1.572094e+002
3.395107e+002,1.578011e+002
3.404750e+002,1.581073e+002
3.414392e+002,1.572732e+002
3.424034e+002,1.534766e+002
3.433677e+002,1.511442e+002
3.443319e+002,1.526495e+002
3.452961e+002,1.557399e+002
3.462604e+002,1.575656e+002
3.472246e+002,1.553353e+002
3.481888e+002,1.523344e+002
3.491531e+002,1.529173e+002
3.501173e+002,1.562284e+002
3.510815e+002,1.601957e+002
3.520458e+002,1.619563e+002
3.530100e+002,1.604810e+002
3.539742e+002,1.594088e+002
3.549385e+002,1.591239e+002
3.559027e+002,1.594649e+002
3.568669e+002,1.601068e+002
3.578312e+002,1.618246e+002
3.587954e+002,1.633840e+002
3.597596e+002,1.636111e+002
3.607239e+002,1.629044e+002
3.616881e+002,1.620595e+002
3.626523e+002,1.618107e+002
3.636166e+002,1.622688e+002
3.645808e+002,1.637286e+002
3.655450e+002,1.657438e+002
3.665093e+002,1.675761e+002
3.674735e+002,1.682968e+002
3.684377e+002,1.678921e+002
3.694020e+002,1.678593e+002
3.703662e+002,1.682863e+002
3.713304e+002,1.686603e+002
3.722947e+002,1.680322e+002
3.732589e+002,1.650948e+002
3.742231e+002,1.630260e+002
3.751874e+002,1.624062e+002
3.761516e+002,1.626912e+002
3.771158e+002,1.631351e+002
3.780801e+002,1.638295e+002
3.790443e+002,1.638610e+002
3.800085e+002,1.621886e+002
3.809728e+002,1.599675e+002
3.819370e+002,1.588332e+002
3.829012e+002,1.605995e+002
3.838655e+002,1.635249e+002
3.848297e+002,1.642160e+002
3.857939e+002,1.631163e+002
3.867582e+002,1.618474e+002
3.877224e+002,1.626892e+002
3.886866e+002,1.667905e+002
3.896509e+002,1.695209e+002
3.906151e+002,1.700872e+002
3.915793e+002,1.694901e+002
3.925436e+002,1.690949e+002
3.935078e+002,1.690056e+002
3.944720e+002,1.681245e+002
3.954363e+002,1.663213e+002
3.964005e+002,1.648017e+002
3.973647e+002,1.647378e+002
3.983290e+002,1.668474e+002
3.992932e+002,1.686627e+002
4.002574e+002,1.684689e+002
4.012217e+002,1.671362e+002
4.021859e+002,1.658708e+002
4.031501e+002,1.658549e+002
4.041144e+002,1.670745e+002
4.050786e+002,1.671706e+002
4.060428e+002,1.660882e+002
4.070071e+002,1.651954e+002
4.079713e+002,1.659357e+002
4.089355e+002,1.690193e+002
4.098998e+002,1.707216e+002
4.108640e+002,1.707172e+002
4.118282e+002,1.702909e+002
4.127925e+002,1.704431e+002
4.137567e+002,1.715704e+002
4.147209e+002,1.720057e+002
4.156852e+002,1.710005e+002
4.166494e+002,1.695168e+002
4.176136e+002,1.682346e+002
4.185779e+002,1.676827e+002
4.195421e+002,1.683514e+002
4.205063e+002,1.701973e+002
4.214706e+002,1.721970e+002
4.224348e+002,1.737547e+002
4.233990e+002,1.745752e+002
4.243633e+002,1.747461e+002
4.253275e+002,1.745171e+002
4.262917e+002,1.748431e+002
4.272560e+002,1.752935e+002
4.282202e+002,1.753192e+002
4.291844e+002,1.745684e+002
4.301487e+002,1.740282e+002
4.311129e+002,1.736125e+002
4.320771e+002,1.736471e+002
4.330414e+002,1.747555e+002
4.340056e+002,1.768843e+002
4.349698e+002,1.787701e+002
4.359341e+002,1.780115e+002
4.368983e+002,1.767411e+002
4.378625e+002,1.766596e+002
4.388268e+002,1.782270e+002
4.397910e+002,1.807585e+002
4.407552e+002,1.819576e+002
4.417195e+002,1.814331e+002
4.426837e+002,1.805315e+002
4.436479e+002,1.794513e+002
4.446122e+002,1.785287e+002
4.455764e+002,1.788122e+002
4.465406e+002,1.829024e+002
4.475049e+002,1.856644e+002
4.484691e+002,1.847487e+002
4.494333e+002,1.813665e+002
4.503976e+002,1.792422e+002
4.513618e+002,1.823988e+002
4.523260e+002,1.858869e+002
4.532903e+002,1.867274e+002
4.542545e+002,1.851964e+002
4.552188e+002,1.825850e+002
4.561830e+002,1.806268e+002
4.571472e+002,1.798401e+002
4.581115e+002,1.794793e+002
4.590757e+002,1.794159e+002
4.600399e+002,1.795285e+002
4.610042e+002,1.796783e+002
4.619684e+002,1.795691e+002
4.629326e+002,1.790720e+002
4.638969e+002,1.779177e+002
4.648611e+002,1.767341e+002
4.658253e+002,1.762643e+002
4.667896e+002,1.770927e+002
4.677538e+002,1.779142e+002
4.687180e+002,1.783447e+002
4.696823e+002,1.787917e+002
4.706465e+002,1.794964e+002
4.716107e+002,1.804862e+002
4.725750e+002,1.813007e+002
4.735392e+002,1.810671e+002
4.745034e+002,1.800537e+002
4.754677e+002,1.788340e+002
4.764319e+002,1.777589e+002
4.773961e+002,1.768765e+002
4.783604e+002,1.778383e+002
4.793246e+002,1.819560e+002
4.802888e+002,1.856458e+002
4.812531e+002,1.877451e+002
4.822173e+002,1.882379e+002
4.831815e+002,1.875364e+002
4.841458e+002,1.849338e+002
4.851100e+002,1.820996e+002
4.860742e+002,1.793676e+002
4.870385e+002,1.769251e+002
4.880027e+002,1.748438e+002
4.889669e+002,1.732647e+002
4.899312e+002,1.724702e+002
4.908954e+002,1.727769e+002
4.918596e+002,1.738744e+002
4.928239e+002,1.749394e+002
4.937881e+002,1.746614e+002
4.947523e+002,1.726262e+002
4.957166e+002,1.704098e+002
4.966808e+002,1.678316e+002
4.976450e+002,1.657986e+002
4.986093e+002,1.655634e+002
4.995735e+002,1.676389e+002
5.005377e+002,1.692004e+002
5.015020e+002,1.700991e+002
5.024662e+002,1.703245e+002
5.034304e+002,1.696931e+002
5.043947e+002,1.679979e+002
5.053589e+002,1.669614e+002
5.063231e+002,1.686929e+002
5.072874e+002,1.717083e+002
5.082516e+002,1.740916e+002
5.092158e+002,1.745483e+002
5.101801e+002,1.733350e+002
5.111443e+002,1.733871e+002
5.121085e+002,1.746855e+002
5.130728e+002,1.758869e+002
5.140370e+002,1.763756e+002
5.150012e+002,1.761406e+002
5.159655e+002,1.756107e+002
5.169297e+002,1.741379e+002
5.178939e+002,1.733130e+002
5.188582e+002,1.737138e+002
5.198224e+002,1.753125e+002
5.207866e+002,1.776419e+002
5.217509e+002,1.810705e+002
5.227151e+002,1.841933e+002
5.236793e+002,1.855482e+002
5.246436e+002,1.854200e+002
5.256078e+002,1.850237e+002
5.265720e+002,1.861697e+002
5.275363e+002,1.892856e+002
5.285005e+002,1.923266e+002
5.294647e+002,1.950993e+002
5.304290e+002,1.979612e+002
5.313932e+002,2.016413e+002
5.323574e+002,2.071273e+002
5.333217e+002,2.108830e+002
5.342859e+002,2.117759e+002
5.352501e+002,2.117854e+002
5.362144e+002,2.124478e+002
5.371786e+002,2.144227e+002
5.381428e+002,2.168838e+002
5.391071e+002,2.185559e+002
5.400713e+002,2.201865e+002
5.410355e+002,2.225829e+002
5.419998e+002,2.258992e+002
5.429640e+002,2.294331e+002
5.439282e+002,2.315750e+002
5.448925e+002,2.329902e+002
5.458567e+002,2.346312e+002
5.468209e+002,2.364638e+002
5.477852e+002,2.383204e+002
5.487494e+002,2.402317e+002
5.497136e+002,2.422307e+002
5.506779e+002,2.436396e+002
5.516421e+002,2.446026e+002
5.526063e+002,2.452570e+002
5.535706e+002,2.457953e+002
5.545348e+002,2.465424e+002
5.554990e+002,2.470882e+002
5.564633e+002,2.465229e+002
5.574275e+002,2.454011e+002
5.583917e+002,2.445987e+002
5.593560e+002,2.448063e+002
5.603202e+002,2.457253e+002
5.612844e+002,2.456007e+002
5.622487e+002,2.444564e+002
5.632129e+002,2.430134e+002
5.641771e+002,2.416918e+002
5.651414e+002,2.404999e+002
5.661056e+002,2.389074e+002
5.670698e+002,2.365305e+002
5.680341e+002,2.348865e+002
5.689983e+002,2.342287e+002
5.699625e+002,2.341802e+002
5.709268e+002,2.340556e+002
5.718910e+002,2.340337e+002
5.728552e+002,2.335599e+002
5.738195e+002,2.324694e+002
5.747837e+002,2.310338e+002
5.757479e+002,2.295015e+002
5.767122e+002,2.279308e+002
5.776764e+002,2.260435e+002
5.786406e+002,2.237887e+002
5.796049e+002,2.212025e+002
5.805691e+002,2.187672e+002
5.815333e+002,2.170049e+002
5.824976e+002,2.161501e+002
5.834618e+002,2.157722e+002
5.844260e+002,2.164027e+002
5.853903e+002,2.166804e+002
5.863545e+002,2.157335e+002
5.873187e+002,2.133591e+002
5.882830e+002,2.102520e+002
5.892472e+002,2.070554e+002
5.902114e+002,2.043571e+002
5.911757e+002,2.023279e+002
5.921399e+002,2.009744e+002
5.931041e+002,2.001066e+002
5.940684e+002,1.992757e+002
5.950326e+002,1.977854e+002
5.959968e+002,1.962364e+002
5.969611e+002,1.951689e+002
5.979253e+002,1.943121e+002
5.988895e+002,1.932070e+002
5.998538e+002,1.918139e+002
6.008180e+002,1.899503e+002
6.017822e+002,1.868156e+002
6.027465e+002,1.838057e+002
6.037107e+002,1.819793e+002
6.046749e+002,1.815573e+002
6.056392e+002,1.812944e+002
6.066034e+002,1.799642e+002
6.075676e+002,1.779919e+002
6.085319e+002,1.754798e+002
6.094961e+002,1.726764e+002
6.104603e+002,1.699094e+002
6.114246e+002,1.675893e+002
6.123888e+002,1.655858e+002
6.133530e+002,1.637784e+002
6.143173e+002,1.624885e+002
6.152815e+002,1.612354e+002
6.162457e+002,1.591067e+002
6.172100e+002,1.551694e+002
6.181742e+002,1.532454e+002
6.191384e+002,1.541848e+002
6.201027e+002,1.551607e+002
6.210669e+002,1.543858e+002
6.220311e+002,1.516787e+002
6.229954e+002,1.491031e+002
6.239596e+002,1.484733e+002
6.249238e+002,1.479301e+002
6.258881e+002,1.468337e+002
6.268523e+002,1.452227e+002
6.278165e+002,1.433842e+002
6.287808e+002,1.414205e+002
6.297450e+002,1.392599e+002
6.307092e+002,1.375440e+002
6.316735e+002,1.361333e+002
6.326377e+002,1.349622e+002
6.336019e+002,1.343497e+002
6.345662e+002,1.351790e+002
6.355304e+002,1.346401e+002
6.364946e+002,1.311577e+002
6.374589e+002,1.278395e+002
6.384231e+002,1.265064e+002
6.393873e+002,1.272988e+002
6.403516e+002,1.284038e+002
6.413158e+002,1.288759e+002
6.422800e+002,1.283339e+002
6.432443e+002,1.262133e+002
6.442085e+002,1.230219e+002
6.451727e+002,1.199481e+002
6.461370e+002,1.184162e+002
6.471012e+002,1.183893e+002
6.480654e+002,1.181109e+002
6.490297e+002,1.177657e+002
6.499939e+002,1.173143e+002
6.509581e+002,1.167729e+002
6.519224e+002,1.162013e+002
6.528866e+002,1.145646e+002
6.538508e+002,1.104240e+002
6.548151e+002,1.063210e+002
6.557793e+002,1.034888e+002
6.567435e+002,1.020335e+002
6.577078e+002,1.011582e+002
6.586720e+002,1.005425e+002
6.596362e+002,9.971692e+001
6.606005e+002,9.827188e+001
6.615647e+002,9.658853e+001
6.625289e+002,9.526312e+001
6.634932e+002,9.473068e+001
6.644574e+002,9.455899e+001
6.654216e+002,9.404883e+001
6.663859e+002,9.355054e+001
6.673501e+002,9.259369e+001
6.683143e+002,9.092166e+001
6.692786e+002,8.878488e+001
6.702428e+002,8.724237e+001
6.712070e+002,8.652676e+001
6.721713e+002,8.571878e+001
6.731355e+002,8.401013e+001
6.740997e+002,8.181769e+001
6.750640e+002,8.043066e+001
6.760282e+002,8.148257e+001
6.769924e+002,8.296713e+001
6.779567e+002,8.146097e+001
6.789209e+002,7.807394e+001
6.798851e+002,7.530539e+001
6.808494e+002,7.495367e+001
6.818136e+002,7.657999e+001
6.827778e+002,7.634109e+001
6.837421e+002,7.418604e+001
6.847063e+002,7.213232e+001
6.856705e+002,7.050613e+001
6.866348e+002,6.921478e+001
6.875990e+002,6.814990e+001
6.885632e+002,6.703439e+001
6.895275e+002,6.566931e+001
6.904917e+002,6.463690e+001
6.914559e+002,6.411447e+001
6.924202e+002,6.406223e+001
6.933844e+002,6.426233e+001
6.943486e+002,6.436740e+001
6.953129e+002,6.393375e+001
6.962771e+002,6.288272e+001
6.972413e+002,6.125943e+001
6.982056e+002,5.927057e+001
6.991698e+002,5.732193e+001
7.001340e+002,5.603629e+001
7.010983e+002,5.581781e+001
7.020625e+002,5.521091e+001
7.030267e+002,5.365790e+001
7.039910e+002,5.167914e+001
7.049552e+002,5.002658e+001
7.059194e+002,4.911563e+001
7.068837e+002,4.866397e+001
7.078479e+002,4.860095e+001
7.088121e+002,4.858453e+001
7.097764e+002,4.817651e+001
7.107406e+002,4.728818e+001
7.117048e+002,4.626154e+001
7.126691e+002,4.579657e+001
7.136333e+002,4.594321e+001
7.145975e+002,4.640292e+001
7.155618e+002,4.741440e+001
7.165260e+002,4.813635e+001
7.174902e+002,4.707733e+001
7.184545e+002,4.291666e+001
7.194187e+002,4.064322e+001
7.203829e+002,4.160123e+001
7.213472e+002,4.280151e+001
7.223114e+002,4.268701e+001
7.232756e+002,4.128986e+001
7.242399e+002,3.999612e+001
7.252041e+002,3.989163e+001
7.261683e+002,4.000610e+001
7.271326e+002,3.930960e+001
7.280968e+002,3.836957e+001
7.290610e+002,3.858487e+001
7.300253e+002,4.115479e+001
7.309895e+002,4.536389e+001
7.319537e+002,4.547739e+001
7.329180e+002,4.119357e+001
7.338822e+002,3.706949e+001
7.348464e+002,3.517969e+001
7.358107e+002,3.545456e+001
7.367749e+002,3.655923e+001
7.377391e+002,3.913824e+001
7.387034e+002,4.116977e+001
7.396676e+002,4.223093e+001
7.406318e+002,4.235748e+001
7.415961e+002,4.136868e+001
7.425603e+002,3.917261e+001
7.435245e+002,3.723260e+001
7.444888e+002,3.806555e+001
7.454530e+002,4.024673e+001
7.464172e+002,4.200204e+001
7.473815e+002,4.267932e+001
7.483457e+002,4.267807e+001
7.493099e+002,4.299915e+001
7.502742e+002,4.395932e+001
7.512384e+002,4.442517e+001
7.522026e+002,4.393784e+001
7.531669e+002,4.340833e+001
7.541311e+002,4.380957e+001
7.550953e+002,4.535138e+001
7.560596e+002,4.650427e+001
7.570238e+002,4.574167e+001
7.579880e+002,4.503021e+001
7.589523e+002,4.566116e+001
7.599165e+002,4.742749e+001
7.608807e+002,4.919116e+001
7.618450e+002,4.976291e+001
7.628092e+002,4.955566e+001
7.637734e+002,5.015927e+001
7.647377e+002,5.152319e+001
7.657019e+002,5.300266e+001
7.666661e+002,5.405573e+001
7.676304e+002,5.458890e+001
7.685946e+002,5.513828e+001
7.695588e+002,5.645526e+001
7.705231e+002,5.747675e+001
7.714873e+002,5.798325e+001
7.724515e+002,5.793024e+001
7.734158e+002,5.719507e+001
7.743800e+002,5.553323e+001
7.753442e+002,5.379648e+001
7.763085e+002,5.242636e+001
7.772727e+002,5.188260e+001
7.782369e+002,5.281195e+001
7.792012e+002,5.511465e+001
7.801654e+002,5.781842e+001
7.811296e+002,5.932977e+001
7.820939e+002,5.970438e+001
7.830581e+002,5.922122e+001
7.840223e+002,5.716080e+001
7.849866e+002,5.507202e+001
7.859508e+002,5.435651e+001
7.869150e+002,5.492584e+001
7.878793e+002,5.553552e+001
7.888435e+002,5.665857e+001
7.898077e+002,5.740396e+001
7.907720e+002,5.704242e+001
7.917362e+002,5.618793e+001
7.927004e+002,5.625385e+001
7.936647e+002,5.840677e+001
7.946289e+002,6.112274e+001
7.955931e+002,6.184244e+001
7.965574e+002,6.088840e+001
7.975216e+002,5.912750e+001
7.984858e+002,5.716336e+001
7.994501e+002,5.535019e+001
8.004143e+002,5.431702e+001
8.013785e+002,5.376819e+001
8.023428e+002,5.376486e+001
8.033070e+002,5.441632e+001
8.042712e+002,5.547791e+001
8.052355e+002,5.716028e+001
8.061997e+002,5.980231e+001
8.071639e+002,6.093945e+001
8.081282e+002,5.767722e+001
8.090924e+002,5.345264e+001
8.100566e+002,5.051273e+001
8.110209e+002,4.925922e+001
8.119851e+002,4.878445e+001
8.129493e+002,4.781296e+001
8.139136e+002,4.613120e+001
8.148778e+002,4.541544e+001
8.158420e+002,4.627521e+001
8.168063e+002,4.706973e+001
8.177705e+002,4.676639e+001
8.187347e+002,4.540790e+001
8.196990e+002,4.369479e+001
8.206632e+002,4.060352e+001
8.216274e+002,3.814728e+001
8.225917e+002,3.789838e+001
8.235559e+002,3.863416e+001
8.245201e+002,3.844180e+001
8.254844e+002,3.623550e+001
8.264486e+002,3.319681e+001
8.274128e+002,3.140216e+001
8.283771e+002,3.050394e+001
8.293413e+002,2.985748e+001
8.303055e+002,2.922989e+001
8.312698e+002,2.889307e+001
8.322340e+002,2.949805e+001
8.331982e+002,3.166489e+001
8.341625e+002,3.231125e+001
8.351267e+002,3.135202e+001
8.360909e+002,2.997620e+001
8.370552e+002,2.805386e+001
8.380194e+002,2.573141e+001
8.389836e+002,2.435193e+001
8.399479e+002,2.575446e+001
8.409121e+002,2.715210e+001
8.418763e+002,2.608008e+001
8.428406e+002,2.364734e+001
8.438048e+002,2.163345e+001
8.447690e+002,2.113309e+001
8.457333e+002,2.188123e+001
8.466975e+002,2.304462e+001
8.476617e+002,2.475128e+001
8.486260e+002,2.552332e+001
8.495902e+002,2.413541e+001
8.505544e+002,2.193121e+001
8.515187e+002,2.106805e+001
8.524829e+002,2.218411e+001
8.534471e+002,2.263663e+001
8.544114e+002,2.095923e+001
8.553756e+002,1.975381e+001
8.563398e+002,2.078287e+001
8.573041e+002,2.327582e+001
8.582683e+002,2.508713e+001
8.592325e+002,2.454761e+001
8.601968e+002,2.247665e+001
8.611610e+002,2.024741e+001
8.621252e+002,1.807349e+001
8.630895e+002,1.678040e+001
8.640537e+002,1.701736e+001
8.650179e+002,1.846268e+001
8.659822e+002,1.954459e+001
8.669464e+002,1.948206e+001
8.679106e+002,1.932593e+001
8.688749e+002,1.865189e+001
8.698391e+002,1.808044e+001
8.708033e+002,1.890787e+001
8.717676e+002,2.139648e+001
8.727318e+002,2.332623e+001
8.736960e+002,2.194183e+001
8.746603e+002,1.984964e+001
8.756245e+002,1.899451e+001
8.765887e+002,1.901910e+001
8.775530e+002,1.904169e+001
8.785172e+002,1.856564e+001
8.794814e+002,1.805161e+001
8.804457e+002,1.875934e+001
8.814099e+002,2.121268e+001
8.823741e+002,2.231427e+001
8.833384e+002,2.060760e+001
8.843026e+002,1.736179e+001
8.852668e+002,1.435556e+001
8.862311e+002,1.164063e+001
8.871953e+002,1.038260e+001
8.881595e+002,1.220978e+001
8.891238e+002,1.467331e+001
8.900880e+002,1.670032e+001
8.910522e+002,1.790863e+001
8.920165e+002,1.806030e+001
8.929807e+002,1.682751e+001
8.939449e+002,1.485968e+001
8.949092e+002,1.462106e+001
8.958734e+002,1.588446e+001
8.968376e+002,1.673257e+001
8.978019e+002,1.597314e+001
8.987661e+002,1.415292e+001
8.997303e+002,1.318945e+001
9.006946e+002,1.354343e+001
9.016588e+002,1.416574e+001
9.026230e+002,1.515237e+001
9.035873e+002,1.654926e+001
9.045515e+002,1.873743e+001
9.055157e+002,2.139502e+001
9.064800e+002,2.313153e+001
9.074442e+002,2.228604e+001
9.084084e+002,2.057895e+001
9.093727e+002,2.075967e+001
9.103369e+002,2.231680e+001
9.113011e+002,2.375278e+001
9.122654e+002,2.414291e+001
9.132296e+002,2.376126e+001
9.141938e+002,2.385565e+001
9.151581e+002,2.535538e+001
9.161223e+002,2.628827e+001
9.170865e+002,2.570074e+001
9.180508e+002,2.539233e+001
9.190150e+002,2.717084e+001
9.199792e+002,3.099860e+001
9.209435e+002,3.427438e+001
9.219077e+002,3.544629e+001
9.228719e+002,3.540756e+001
9.238362e+002,3.455569e+001
9.248004e+002,3.359326e+001
9.257646e+002,3.323666e+001
9.267289e+002,3.384851e+001
9.276931e+002,3.531259e+001
9.286573e+002,3.780826e+001
9.296216e+002,4.169391e+001
9.305858e+002,4.421988e+001
9.315500e+002,4.465500e+001
9.325143e+002,4.434015e+001
9.334785e+002,4.484000e+001
9.344427e+002,4.634479e+001
9.354070e+002,4.694986e+001
9.363712e+002,4.376971e+001
9.373354e+002,4.143143e+001
9.382997e+002,4.250409e+001
9.392639e+002,4.579272e+001
9.402281e+002,4.909061e+001
9.411924e+002,5.099792e+001
9.421566e+002,5.167270e+001
9.431208e+002,5.097589e+001
9.440851e+002,4.905804e+001
9.450493e+002,4.848816e+001
9.460135e+002,5.042032e+001
9.469778e+002,5.340451e+001
9.479420e+002,5.533569e+001
9.489063e+002,5.585757e+001
9.498705e+002,5.687970e+001
9.508347e+002,5.956714e+001
9.517990e+002,6.170062e+001
9.527632e+002,6.240833e+001
9.537274e+002,6.208551e+001
9.546917e+002,6.145087e+001
9.556559e+002,6.087201e+001
9.566201e+002,6.020465e+001
9.575844e+002,5.873206e+001
9.585486e+002,5.693604e+001
9.595128e+002,5.610815e+001
9.604771e+002,5.668927e+001
9.614413e+002,5.796191e+001
9.624055e+002,5.901855e+001
9.633698e+002,5.981177e+001
9.643340e+002,5.999976e+001
9.652982e+002,5.799072e+001
9.662625e+002,5.653638e+001
9.672267e+002,5.700568e+001
9.681909e+002,5.902765e+001
9.691552e+002,6.174594e+001
9.701194e+002,6.453604e+001
9.710836e+002,6.658685e+001
9.720479e+002,6.708664e+001
9.730121e+002,6.679135e+001
9.739763e+002,6.664813e+001
9.749406e+002,6.703189e+001
9.759048e+002,6.765253e+001
9.768690e+002,6.794806e+001
9.778333e+002,6.775671e+001
9.787975e+002,6.833694e+001
9.797617e+002,6.950531e+001
9.807260e+002,7.102612e+001
9.816902e+002,7.377954e+001
9.826544e+002,7.710577e+001
9.836187e+002,8.015619e+001
9.845829e+002,8.268295e+001
9.855471e+002,8.452902e+001
9.865114e+002,8.485092e+001
9.874756e+002,8.461700e+001
9.884398e+002,8.463025e+001
9.894041e+002,8.503519e+001
9.903683e+002,8.593982e+001
9.913325e+002,8.733206e+001
9.922968e+002,8.867603e+001
9.932610e+002,8.817734e+001
9.942252e+002,8.503638e+001
9.951895e+002,8.324466e+001
9.961537e+002,8.312402e+001
9.971179e+002,8.378519e+001
9.980822e+002,8.483075e+001
9.990464e+002,8.635056e+001
1.000011e+003,8.805939e+001
1.000975e+003,9.019974e+001
1.001939e+003,9.116797e+001
1.002903e+003,8.945325e+001
1.003868e+003,8.664172e+001
1.004832e+003,8.505081e+001
1.005796e+003,8.569995e+001
1.006760e+003,8.758514e+001
1.007724e+003,8.860910e+001
1.008689e+003,8.841931e+001
1.009653e+003,8.935355e+001
1.010617e+003,9.215826e+001
1.011581e+003,9.422632e+001
1.012546e+003,9.357452e+001
1.013510e+003,9.114114e+001
1.014474e+003,9.026712e+001
1.015438e+003,9.184540e+001
1.016403e+003,9.433368e+001
1.017367e+003,9.775043e+001
1.018331e+003,1.005769e+002
1.019295e+003,1.012376e+002
1.020260e+003,1.001985e+002
1.021224e+003,9.964862e+001
1.022188e+003,1.016356e+002
1.023152e+003,1.054863e+002
1.024116e+003,1.079193e+002
1.025081e+003,1.088530e+002
1.026045e+003,1.096234e+002
1.027009e+003,1.106798e+002
1.027973e+003,1.118838e+002
1.028938e+003,1.127925e+002
1.029902e+003,1.131025e+002
1.030866e+003,1.149452e+002
1.031830e+003,1.209993e+002
1.032795e+003,1.265386e+002
1.033759e+003,1.289048e+002
1.034723e+003,1.290212e+002
1.035687e+003,1.290232e+002
1.036651e+003,1.301940e+002
1.037616e+003,1.322034e+002
1.038580e+003,1.342441e+002
1.039544e+003,1.360650e+002
1.040508e+003,1.380148e+002
1.041473e+003,1.405768e+002
1.042437e+003,1.432377e+002
1.043401e+003,1.451635e+002
1.044365e+003,1.463270e+002
1.045330e+003,1.483323e+002
1.046294e+003,1.522477e+002
1.047258e+003,1.548266e+002
1.048222e+003,1.545911e+002
1.049187e+003,1.538802e+002
1.050151e+003,1.549564e+002
1.051115e+003,1.579811e+002
1.052079e+003,1.611518e+002
1.053043e+003,1.627775e+002
1.054008e+003,1.637843e+002
1.054972e+003,1.660338e+002
1.055936e+003,1.687521e+002
1.056900e+003,1.714597e+002
1.057865e+003,1.747419e+002
1.058829e+003,1.782761e+002
1.059793e+003,1.806276e+002
1.060757e+003,1.813078e+002
1.061722e+003,1.829518e+002
1.062686e+003,1.856724e+002
1.063650e+003,1.885754e+002
1.064614e+003,1.915229e+002
1.065578e+003,1.943748e+002
1.066543e+003,1.971537e+002
1.067507e+003,2.000846e+002
1.068471e+003,2.032600e+002
1.069435e+003,2.062597e+002
1.070400e+003,2.088519e+002
1.071364e+003,2.112831e+002
1.072328e+003,2.133896e+002
1.073292e+003,2.153448e+002
1.074257e+003,2.177895e+002
1.075221e+003,2.208663e+002
1.076185e+003,2.232443e+002
1.077149e+003,2.239544e+002
1.078114e+003,2.254526e+002
1.079078e+003,2.285409e+002
1.080042e+003,2.321687e+002
1.081006e+003,2.350949e+002
1.081970e+003,2.373391e+002
1.082935e+003,2.405045e+002
1.083899e+003,2.463130e+002
1.084863e+003,2.530111e+002
1.085827e+003,2.550242e+002
1.086792e+003,2.531436e+002
1.087756e+003,2.512327e+002
1.088720e+003,2.504536e+002
1.089684e+003,2.506499e+002
1.090649e+003,2.517681e+002
1.091613e+003,2.540045e+002
1.092577e+003,2.560335e+002
1.093541e+003,2.564797e+002
1.094505e+003,2.569725e+002
1.095470e+003,2.592233e+002
1.096434e+003,2.615175e+002
1.097398e+003,2.620125e+002
1.098362e+003,2.603137e+002
1.099327e+003,2.572314e+002
1.100291e+003,2.531450e+002
1.101255e+003,2.487841e+002
1.102219e+003,2.462023e+002
1.103184e+003,2.449256e+002
1.104148e+003,2.437136e+002
1.105112e+003,2.426070e+002
1.106076e+003,2.415837e+002
1.107041e+003,2.401383e+002
1.108005e+003,2.380948e+002
1.108969e+003,2.361370e+002
1.109933e+003,2.340405e+002
1.110897e+003,2.313705e+002
1.111862e+003,2.281921e+002
1.112826e+003,2.249907e+002
1.113790e+003,2.223775e+002
1.114754e+003,2.204154e+002
1.115719e+003,2.182672e+002
1.116683e+003,2.146173e+002
1.117647e+003,2.096409e+002
1.118611e+003,2.058077e+002
1.119576e+003,2.038142e+002
1.120540e+003,2.022406e+002
1.121504e+003,1.995591e+002
1.122468e+003,1.960714e+002
1.123432e+003,1.936133e+002
1.124397e+003,1.928908e+002
1.125361e+003,1.907031e+002
1.126325e+003,1.860544e+002
1.127289e+003,1.815542e+002
1.128254e+003,1.776616e+002
1.129218e+003,1.742038e+002
1.130182e+003,1.712326e+002
1.131146e+003,1.687631e+002
1.132111e+003,1.660268e+002
1.133075e+003,1.614074e+002
1.134039e+003,1.551649e+002
1.135003e+003,1.517817e+002
1.135968e+003,1.521353e+002
1.136932e+003,1.521222e+002
1.137896e+003,1.492849e+002
1.138860e+003,1.448112e+002
1.139824e+003,1.414608e+002
1.140789e+003,1.397780e+002
1.141753e+003,1.383553e+002
1.142717e+003,1.362260e+002
1.143681e+003,1.334269e+002
1.144646e+003,1.300664e+002
1.145610e+003,1.267121e+002
1.146574e+003,1.240716e+002
1.147538e+003,1.225248e+002
1.148503e+003,1.217935e+002
1.149467e+003,1.212960e+002
1.150431e+003,1.207542e+002
1.151395e+003,1.182620e+002
1.152359e+003,1.126196e+002
1.153324e+003,1.076134e+002
1.154288e+003,1.052284e+002
1.155252e+003,1.043071e+002
1.156216e+003,1.026110e+002
1.157181e+003,9.978619e+001
1.158145e+003,9.746396e+001
1.159109e+003,9.691281e+001
1.160073e+003,9.652243e+001
1.161038e+003,9.551086e+001
1.162002e+003,9.386890e+001
1.162966e+003,9.177032e+001
1.163930e+003,8.935516e+001
1.164895e+003,8.660541e+001
1.165859e+003,8.339923e+001
1.166823e+003,7.973834e+001
1.167787e+003,7.771356e+001
1.168751e+003,7.813339e+001
1.169716e+003,7.771002e+001
1.170680e+003,7.500900e+001
1.171644e+003,7.121735e+001
1.172608e+003,6.789008e+001
1.173573e+003,6.557965e+001
1.174537e+003,6.480383e+001
1.175501e+003,6.627374e+001
1.176465e+003,6.758182e+001
1.177430e+003,6.713568e+001
1.178394e+003,6.538474e+001
1.179358e+003,6.267310e+001
1.180322e+003,5.906616e+001
1.181286e+003,5.546472e+001
1.182251e+003,5.364868e+001
1.183215e+003,5.413434e+001
1.184179e+003,5.386197e+001
1.185143e+003,5.248297e+001
1.186108e+003,5.117902e+001
1.187072e+003,5.000653e+001
1.188036e+003,4.851984e+001
1.189000e+003,4.603473e+001
1.189965e+003,4.288815e+001
1.190929e+003,4.072275e+001
1.191893e+003,4.066461e+001
1.192857e+003,4.139392e+001
1.193822e+003,4.128687e+001
1.194786e+003,4.072385e+001
1.195750e+003,4.019812e+001
1.196714e+003,3.967691e+001
1.197678e+003,3.866656e+001
1.198643e+003,3.663641e+001
1.199607e+003,3.378012e+001
1.200571e+003,3.146906e+001
1.201535e+003,3.008029e+001
1.202500e+003,2.929187e+001
1.203464e+003,2.900534e+001
1.204428e+003,2.841577e+001
1.205392e+003,2.660880e+001
1.206357e+003,2.417410e+001
1.207321e+003,2.287726e+001
1.208285e+003,2.375851e+001
1.209249e+003,2.533627e+001
1.210214e+003,2.503131e+001
1.211178e+003,2.317786e+001
1.212142e+003,2.164691e+001
1.213106e+003,2.016379e+001
1.214070e+003,1.897769e+001
1.215035e+003,1.831866e+001
1.215999e+003,1.796078e+001
1.216963e+003,1.758817e+001
1.217927e+003,1.740857e+001
1.218892e+003,1.714948e+001
1.219856e+003,1.652151e+001
1.220820e+003,1.603442e+001
1.221784e+003,1.617654e+001
1.222749e+003,1.654523e+001
1.223713e+003,1.648422e+001
1.224677e+003,1.564526e+001
1.225641e+003,1.393423e+001
1.226605e+003,1.119849e+001
1.227570e+003,7.556030e+000
1.228534e+003,6.224670e+000
1.229498e+003,8.730591e+000
1.230462e+003,1.071378e+001
1.231427e+003,1.102618e+001
1.232391e+003,1.040808e+001
1.233355e+003,9.413269e+000
1.234319e+003,8.415131e+000
1.235284e+003,8.285950e+000
1.236248e+003,9.554657e+000
1.237212e+003,1.089978e+001
1.238176e+003,1.099603e+001
1.239141e+003,1.037064e+001
1.240105e+003,9.544647e+000
1.241069e+003,8.786072e+000
1.242033e+003,8.611267e+000
1.242997e+003,9.482635e+000
1.243962e+003,1.092584e+001
1.244926e+003,1.124295e+001
1.245890e+003,9.985504e+000
1.246854e+003,8.963989e+000
1.247819e+003,7.976379e+000
1.248783e+003,7.262054e+000
1.249747e+003,6.792145e+000
1.250711e+003,6.783661e+000
1.251676e+003,7.820343e+000
1.252640e+003,9.767181e+000
1.253604e+003,1.106995e+001
1.254568e+003,1.040912e+001
1.255532e+003,8.749756e+000
1.256497e+003,8.016632e+000
1.257461e+003,8.052887e+000
1.258425e+003,8.289612e+000
1.259389e+003,8.596619e+000
1.260354e+003,8.722321e+000
1.261318e+003,8.276001e+000
1.262282e+003,7.351715e+000
1.263246e+003,6.896851e+000
1.264211e+003,7.310669e+000
1.265175e+003,7.657776e+000
1.266139e+003,7.944824e+000
1.267103e+003,7.901001e+000
1.268068e+003,6.625916e+000
1.269032e+003,4.688812e+000
1.269996e+003,3.962738e+000
1.270960e+003,5.490753e+000
1.271924e+003,7.613098e+000
1.272889e+003,6.893402e+000
1.273853e+003,2.801788e+000
1.274817e+003,1.500549e+000
1.275781e+003,4.301178e+000
1.276746e+003,6.253479e+000
1.277710e+003,6.332855e+000
1.278674e+003,5.758087e+000
1.279638e+003,5.418579e+000
1.280603e+003,5.349213e+000
1.281567e+003,5.512665e+000
1.282531e+003,5.788574e+000
1.283495e+003,6.034424e+000
1.284459e+003,6.219971e+000
1.285424e+003,6.266388e+000
1.286388e+003,6.025299e+000
1.287352e+003,5.657837e+000
1.288316e+003,5.960114e+000
1.289281e+003,7.874786e+000
1.290245e+003,1.072546e+001
1.291209e+003,1.162936e+001
1.292173e+003,9.379333e+000
1.293138e+003,7.546112e+000
1.294102e+003,6.695984e+000
1.295066e+003,6.372803e+000
1.296030e+003,6.998566e+000
1.296995e+003,7.776611e+000
1.297959e+003,7.676208e+000
1.298923e+003,6.612000e+000
1.299887e+003,5.334564e+000
1.300851e+003,4.290344e+000
1.301816e+003,3.255676e+000
1.302780e+003,2.395508e+000
1.303744e+003,2.300751e+000
1.304708e+003,2.467468e+000
1.305673e+003,2.541901e+000
1.306637e+003,2.961426e+000
1.307601e+003,3.869904e+000
1.308565e+003,4.830536e+000
1.309530e+003,5.532379e+000
1.310494e+003,6.310181e+000
1.311458e+003,7.149750e+000
1.312422e+003,7.788971e+000
1.313386e+003,8.296844e+000
1.314351e+003,8.935791e+000
1.315315e+003,9.391663e+000
1.316279e+003,9.057190e+000
1.317243e+003,7.858154e+000
1.318208e+003,6.489655e+000
1.319172e+003,5.643402e+000
1.320136e+003,5.216339e+000
1.321100e+003,4.960205e+000
1.322065e+003,5.391541e+000
1.323029e+003,5.774231e+000
1.323993e+003,5.489258e+000
1.324957e+003,5.383575e+000
1.325922e+003,5.795593e+000
1.326886e+003,6.174042e+000
1.327850e+003,6.079468e+000
1.328814e+003,5.743622e+000
1.329778e+003,5.767273e+000
1.330743e+003,6.485474e+000
1.331707e+003,7.590454e+000
1.332671e+003,8.156311e+000
1.333635e+003,8.023560e+000
1.334600e+003,7.711243e+000
1.335564e+003,7.243958e+000
1.336528e+003,6.742004e+000
1.337492e+003,6.342346e+000
1.338457e+003,6.229736e+000
1.339421e+003,6.747498e+000
1.340385e+003,8.086304e+000
1.341349e+003,9.174561e+000
1.342313e+003,9.094788e+000
1.343278e+003,8.562256e+000
1.344242e+003,8.053650e+000
1.345206e+003,7.635925e+000
1.346170e+003,7.222656e+000
1.347135e+003,6.948059e+000
1.348099e+003,7.483948e+000
1.349063e+003,9.607422e+000
1.350027e+003,1.272705e+001
1.350992e+003,1.353333e+001
1.351956e+003,1.023193e+001
1.352920e+003,8.016174e+000
1.353884e+003,7.877319e+000
1.354849e+003,7.988220e+000
1.355813e+003,7.545532e+000
1.356777e+003,7.120422e+000
1.357741e+003,7.516174e+000
1.358705e+003,8.619995e+000
1.359670e+003,9.417419e+000
1.360634e+003,9.145142e+000
1.361598e+003,8.280579e+000
1.362562e+003,8.256409e+000
1.363527e+003,9.425476e+000
1.364491e+003,9.943970e+000
1.365455e+003,8.567932e+000
1.366419e+003,7.188660e+000
1.367384e+003,7.337402e+000
1.368348e+003,8.328186e+000
1.369312e+003,8.818237e+000
1.370276e+003,8.912781e+000
1.371240e+003,9.755371e+000
1.372205e+003,1.189252e+001
1.373169e+003,1.346362e+001
1.374133e+003,1.291821e+001
1.375097e+003,1.125110e+001
1.376062e+003,9.567932e+000
1.377026e+003,8.282471e+000
1.377990e+003,7.831482e+000
1.378954e+003,8.731140e+000
1.379919e+003,1.038879e+001
1.380883e+003,1.084900e+001
1.381847e+003,9.317200e+000
1.382811e+003,8.805359e+000
1.383776e+003,1.024994e+001
1.384740e+003,1.116205e+001
1.385704e+003,1.143469e+001
1.386668e+003,1.162183e+001
1.387632e+003,1.205353e+001
1.388597e+003,1.243433e+001
1.389561e+003,1.200867e+001
1.390525e+003,1.053754e+001
1.391489e+003,9.035400e+000
1.392454e+003,8.916809e+000
1.393418e+003,9.927856e+000
1.394382e+003,1.030048e+001
1.395346e+003,9.918945e+000
1.396311e+003,9.356262e+000
1.397275e+003,8.772278e+000
1.398239e+003,8.954651e+000
1.399203e+003,1.060565e+001
1.400167e+003,1.266180e+001
1.401132e+003,1.304089e+001
1.402096e+003,1.120679e+001
1.403060e+003,9.112366e+000
1.404024e+003,8.501160e+000
1.404989e+003,8.964417e+000
1.405953e+003,8.711487e+000
1.406917e+003,7.736755e+000
1.407881e+003,7.678345e+000
1.408846e+003,9.342529e+000
1.409810e+003,1.096686e+001
1.410774e+003,1.099554e+001
1.411738e+003,1.010437e+001
1.412703e+003,9.506775e+000
1.413667e+003,8.624939e+000
1.414631e+003,8.422180e+000
1.415595e+003,1.031335e+001
1.416559e+003,1.195477e+001
1.417524e+003,1.273560e+001
1.418488e+003,1.287079e+001
1.419452e+003,1.153522e+001
1.420416e+003,9.142944e+000
1.421381e+003,7.870605e+000
1.422345e+003,9.166321e+000
1.423309e+003,1.164545e+001
1.424273e+003,1.252881e+001
1.425238e+003,1.184131e+001
1.426202e+003,1.154633e+001
1.427166e+003,1.105219e+001
1.428130e+003,1.123199e+001
1.429094e+003,1.311047e+001
1.430059e+003,1.453113e+001
1.431023e+003,1.398309e+001
1.431987e+003,1.237683e+001
1.432951e+003,1.114532e+001
1.433916e+003,1.066736e+001
1.434880e+003,1.068237e+001
1.435844e+003,1.107031e+001
1.436808e+003,1.166980e+001
1.437773e+003,1.189508e+001
1.438737e+003,1.164465e+001
1.439701e+003,1.220520e+001
1.440665e+003,1.494043e+001
1.441630e+003,1.660553e+001
1.442594e+003,1.485608e+001
1.443558e+003,1.207721e+001
1.444522e+003,1.165027e+001
1.445486e+003,1.353503e+001
1.446451e+003,1.525891e+001
1.447415e+003,1.591937e+001
1.448379e+003,1.564453e+001
1.449343e+003,1.317267e+001
1.450308e+003,1.028156e+001
1.451272e+003,1.111951e+001
1.452236e+003,1.563574e+001
1.453200e+003,1.929132e+001
1.454165e+003,2.009167e+001
1.455129e+003,1.951849e+001
1.456093e+003,1.884558e+001
1.457057e+003,1.789764e+001
1.458021e+003,1.698987e+001
1.458986e+003,1.630969e+001
1.459950e+003,1.571503e+001
1.460914e+003,1.483856e+001
1.461878e+003,1.455927e+001
1.462843e+003,1.629248e+001
1.463807e+003,1.837628e+001
1.464771e+003,1.806366e+001
1.465735e+003,1.533826e+001
1.466700e+003,1.280609e+001
1.467664e+003,1.217554e+001
1.468628e+003,1.294135e+001
1.469592e+003,1.472992e+001
1.470557e+003,1.806824e+001
1.471521e+003,1.913617e+001
1.472485e+003,1.663110e+001
1.473449e+003,1.507336e+001
1.474413e+003,1.550720e+001
1.475378e+003,1.619434e+001
1.476342e+003,1.577173e+001
1.477306e+003,1.466357e+001
1.478270e+003,1.397705e+001
1.479235e+003,1.409418e+001
1.480199e+003,1.457574e+001
1.481163e+003,1.504553e+001
1.482127e+003,1.571698e+001
1.483092e+003,1.678882e+001
1.484056e+003,1.841522e+001
1.485020e+003,1.880505e+001
1.485984e+003,1.696973e+001
1.486948e+003,1.535516e+001
1.487913e+003,1.446490e+001
1.488877e+003,1.461523e+001
1.489841e+003,1.656757e+001
1.490805e+003,1.936963e+001
1.491770e+003,2.083337e+001
1.492734e+003,2.026862e+001
1.493698e+003,1.895313e+001
1.494662e+003,1.788489e+001
1.495627e+003,1.702386e+001
1.496591e+003,1.674084e+001
1.497555e+003,1.744067e+001
1.498519e+003,1.879333e+001
1.499484e+003,2.063251e+001
1.500448e+003,2.249353e+001
1.501412e+003,2.416217e+001
1.502376e+003,2.536359e+001
1.503340e+003,2.622632e+001
1.504305e+003,2.702881e+001
1.505269e+003,2.725256e+001
1.506233e+003,2.619891e+001
1.507197e+003,2.474213e+001
1.508162e+003,2.394086e+001
1.509126e+003,2.382849e+001
1.510090e+003,2.422113e+001
1.511054e+003,2.507227e+001
1.512019e+003,2.574908e+001
1.512983e+003,2.586346e+001
1.513947e+003,2.545221e+001
1.514911e+003,2.443878e+001
1.515875e+003,2.358911e+001
1.516840e+003,2.435693e+001
1.517804e+003,2.667261e+001
1.518768e+003,2.884668e+001
1.519732e+003,3.065747e+001
1.520697e+003,3.151288e+001
1.521661e+003,3.047974e+001
1.522625e+003,2.859882e+001
1.523589e+003,2.664050e+001
1.524554e+003,2.473950e+001
1.525518e+003,2.361237e+001
1.526482e+003,2.391302e+001
1.527446e+003,2.439404e+001
1.528411e+003,2.325403e+001
1.529375e+003,2.110718e+001
1.530339e+003,2.027606e+001
1.531303e+003,2.055597e+001
1.532267e+003,2.117462e+001
1.533232e+003,2.286310e+001
1.534196e+003,2.334650e+001
1.535160e+003,2.109161e+001
1.536124e+003,1.816211e+001
1.537089e+003,1.635034e+001
1.538053e+003,1.592346e+001
1.539017e+003,1.672662e+001
1.539981e+003,1.841705e+001
1.540946e+003,1.943445e+001
1.541910e+003,1.769531e+001
1.542874e+003,1.393188e+001
1.543838e+003,1.269336e+001
1.544802e+003,1.537390e+001
1.545767e+003,1.728723e+001
1.546731e+003,1.549426e+001
1.547695e+003,1.448010e+001
1.548659e+003,1.747168e+001
1.549624e+003,2.089380e+001
1.550588e+003,2.073523e+001
1.551552e+003,1.790570e+001
1.552516e+003,1.591821e+001
1.553481e+003,1.630157e+001
1.554445e+003,1.773779e+001
1.555409e+003,1.897009e+001
1.556373e+003,2.019116e+001
1.557338e+003,2.041644e+001
1.558302e+003,1.835345e+001
1.559266e+003,1.607983e+001
1.560230e+003,1.320380e+001
1.561194e+003,1.133942e+001
1.562159e+003,1.166803e+001
1.563123e+003,1.329980e+001
1.564087e+003,1.579584e+001
1.565051e+003,1.823499e+001
1.566016e+003,1.923914e+001
1.566980e+003,1.857825e+001
1.567944e+003,1.777423e+001
1.568908e+003,1.843390e+001
1.569873e+003,2.022650e+001
1.570837e+003,2.155603e+001
1.571801e+003,2.245709e+001
1.572765e+003,2.190942e+001
1.573729e+003,1.727429e+001
1.574694e+003,1.436200e+001
1.575658e+003,1.585980e+001
1.576622e+003,1.834760e+001
1.577586e+003,1.960345e+001
1.578551e+003,1.967896e+001
1.579515e+003,1.888849e+001
1.580479e+003,1.782019e+001
1.581443e+003,1.799890e+001
1.582408e+003,2.039368e+001
1.583372e+003,2.319305e+001
1.584336e+003,2.283875e+001
1.585300e+003,1.922534e+001
1.586265e+003,1.753436e+001
1.587229e+003,1.923688e+001
1.588193e+003,2.052356e+001
1.589157e+003,2.128101e+001
1.590121e+003,2.171808e+001
1.591086e+003,2.189215e+001
1.592050e+003,2.192548e+001
1.593014e+003,2.164191e+001
1.593978e+003,2.094397e+001
1.594943e+003,2.017938e+001
1.595907e+003,1.979358e+001
1.596871e+003,1.975177e+001
1.597835e+003,1.957385e+001
1.598800e+003,1.908118e+001
1.599764e+003,1.933087e+001
1.600728e+003,2.184711e+001
1.601692e+003,2.230481e+001
1.602656e+003,1.919891e+001
1.603621e+003,1.694067e+001
1.604585e+003,1.705518e+001
1.605549e+003,1.807025e+001
1.606513e+003,1.889124e+001
1.607478e+003,1.923126e+001
1.608442e+003,1.908441e+001
1.609406e+003,1.870203e+001
1.610370e+003,1.854865e+001
1.611335e+003,1.879651e+001
1.612299e+003,1.898065e+001
1.613263e+003,1.861847e+001
1.614227e+003,1.813062e+001
1.615192e+003,1.728027e+001
1.616156e+003,1.394775e+001
1.617120e+003,1.293829e+001
1.618084e+003,1.764514e+001
1.619048e+003,2.217090e+001
1.620013e+003,2.166138e+001
1.620977e+003,1.860992e+001
1.621941e+003,1.732440e+001
1.622905e+003,1.840723e+001
1.623870e+003,1.996027e+001
1.624834e+003,2.094714e+001
1.625798e+003,2.124872e+001
1.626762e+003,2.004846e+001
1.627727e+003,1.724591e+001
1.628691e+003,1.638239e+001
1.629655e+003,1.949915e+001
1.630619e+003,2.167365e+001
1.631583e+003,2.269861e+001
1.632548e+003,2.307941e+001
1.633512e+003,2.259644e+001
1.634476e+003,2.169238e+001
1.635440e+003,2.057556e+001
1.636405e+003,1.935681e+001
1.637369e+003,1.838763e+001
1.638333e+003,1.804034e+001
1.639297e+003,1.846399e+001
1.640262e+003,1.956207e+001
1.641226e+003,2.070294e+001
1.642190e+003,2.040039e+001
1.643154e+003,1.788531e+001
1.644119e+003,1.695288e+001
1.645083e+003,2.001782e+001
1.646047e+003,2.220184e+001
1.647011e+003,2.229291e+001
1.647975e+003,2.136139e+001
1.648940e+003,1.936456e+001
1.649904e+003,1.794635e+001
1.650868e+003,1.974713e+001
1.651832e+003,2.390637e+001
1.652797e+003,2.619043e+001
1.653761e+003,2.438678e+001
1.654725e+003,2.141534e+001
1.655689e+003,2.140063e+001
1.656654e+003,2.373859e+001
1.657618e+003,2.416437e+001
1.658582e+003,2.111481e+001
1.659546e+003,2.010883e+001
1.660510e+003,2.379395e+001
1.661475e+003,2.645306e+001
1.662439e+003,2.678076e+001
1.663403e+003,2.589752e+001
1.664367e+003,2.362482e+001
1.665332e+003,2.085223e+001
1.666296e+003,1.905328e+001
1.667260e+003,1.865466e+001
1.668224e+003,1.936298e+001
1.669189e+003,2.103180e+001
1.670153e+003,2.269843e+001
1.671117e+003,2.197729e+001
1.672081e+003,1.855585e+001
1.673046e+003,1.666498e+001
1.674010e+003,1.730365e+001
1.674974e+003,1.834204e+001
1.675938e+003,2.014655e+001
1.676902e+003,2.127527e+001
1.677867e+003,2.038013e+001
1.678831e+003,1.905798e+001
1.679795e+003,1.928058e+001
1.680759e+003,2.050934e+001
1.681724e+003,2.057190e+001
1.682688e+003,1.893488e+001
1.683652e+003,1.773639e+001
1.684616e+003,1.885822e+001
1.685581e+003,2.119891e+001
1.686545e+003,2.264648e+001
1.687509e+003,2.323376e+001
1.688473e+003,2.363049e+001
1.689438e+003,2.389520e+001
1.690402e+003,2.391565e+001
1.691366e+003,2.334760e+001
1.692330e+003,2.316003e+001
1.693294e+003,2.438312e+001
1.694259e+003,2.573145e+001
1.695223e+003,2.562671e+001
1.696187e+003,2.453680e+001
1.697151e+003,2.402808e+001
1.698116e+003,2.436005e+001
1.699080e+003,2.472864e+001
1.700044e+003,2.500757e+001
1.701008e+003,2.510205e+001
1.701973e+003,2.436108e+001
1.702937e+003,2.320453e+001
1.703901e+003,2.309637e+001
1.704865e+003,2.383331e+001
1.705829e+003,2.450916e+001
1.706794e+003,2.548486e+001
1.707758e+003,2.619775e+001
1.708722e+003,2.519611e+001
1.709686e+003,2.371759e+001
1.710651e+003,2.412213e+001
1.711615e+003,2.592651e+001
1.712579e+003,2.712146e+001
1.713543e+003,2.773187e+001
1.714508e+003,2.808002e+001
1.715472e+003,2.798456e+001
1.716436e+003,2.785938e+001
1.717400e+003,2.780853e+001
1.718365e+003,2.762823e+001
1.719329e+003,2.779602e+001
1.720293e+003,2.857684e+001
1.721257e+003,2.884998e+001
1.722221e+003,2.783350e+001
1.723186e+003,2.685645e+001
1.724150e+003,2.754065e+001
1.725114e+003,2.947931e+001
1.726078e+003,3.088708e+001
1.727043e+003,3.135968e+001
1.728007e+003,3.168213e+001
1.728971e+003,3.229529e+001
1.729935e+003,3.258063e+001
1.730900e+003,3.243823e+001
1.731864e+003,3.185437e+001
1.732828e+003,3.028540e+001
1.733792e+003,2.858496e+001
1.734756e+003,2.831689e+001
1.735721e+003,2.944971e+001
1.736685e+003,3.042053e+001
1.737649e+003,3.027374e+001
1.738613e+003,2.957703e+001
1.739578e+003,2.927673e+001
1.740542e+003,2.946912e+001
1.741506e+003,2.967767e+001
1.742470e+003,2.968683e+001
1.743435e+003,2.953131e+001
1.744399e+003,2.962061e+001
1.745363e+003,2.960577e+001
1.746327e+003,2.892285e+001
1.747292e+003,2.842798e+001
1.748256e+003,2.883118e+001
1.749220e+003,2.951221e+001
1.750184e+003,2.991449e+001
1.751148e+003,2.977753e+001
1.752113e+003,2.840594e+001
1.753077e+003,2.573352e+001
1.754041e+003,2.409808e+001
1.755005e+003,2.634717e+001
1.755970e+003,3.053064e+001
1.756934e+003,3.086719e+001
1.757898e+003,2.718048e+001
1.758862e+003,2.479779e+001
1.759827e+003,2.404932e+001
1.760791e+003,2.479932e+001
1.761755e+003,2.838678e+001
1.762719e+003,3.117090e+001
1.763683e+003,3.007886e+001
1.764648e+003,2.752020e+001
1.765612e+003,2.594434e+001
1.766576e+003,2.579926e+001
1.767540e+003,2.695038e+001
1.768505e+003,2.887067e+001
1.769469e+003,2.969867e+001
1.770433e+003,2.767816e+001
1.771397e+003,2.518555e+001
1.772362e+003,2.535480e+001
1.773326e+003,2.766614e+001
1.774290e+003,3.028143e+001
1.775254e+003,3.237244e+001
1.776219e+003,3.267273e+001
1.777183e+003,3.081195e+001
1.778147e+003,2.874408e+001
1.779111e+003,2.800739e+001
1.780075e+003,2.811353e+001
1.781040e+003,2.793921e+001
1.782004e+003,2.749023e+001
1.782968e+003,2.816168e+001
1.783932e+003,3.100250e+001
1.784897e+003,3.200446e+001
1.785861e+003,2.920380e+001
1.786825e+003,2.636755e+001
1.787789e+003,2.454126e+001
1.788754e+003,2.402570e+001
1.789718e+003,2.597076e+001
1.790682e+003,2.884357e+001
1.791646e+003,2.973669e+001
1.792610e+003,2.843774e+001
1.793575e+003,2.741852e+001
1.794539e+003,2.815656e+001
1.795503e+003,2.921558e+001
1.796467e+003,2.840076e+001
1.797432e+003,2.622394e+001
1.798396e+003,2.547357e+001
1.799360e+003,2.622015e+001
1.800324e+003,2.706818e+001
1.801289e+003,2.871674e+001
1.802253e+003,2.913708e+001
1.803217e+003,2.712628e+001
1.804181e+003,2.517389e+001
1.805146e+003,2.366656e+001
1.806110e+003,2.295465e+001
1.807074e+003,2.438879e+001
1.808038e+003,2.720624e+001
1.809002e+003,2.837067e+001
1.809967e+003,2.688037e+001
1.810931e+003,2.527155e+001
1.811895e+003,2.538776e+001
1.812859e+003,2.627631e+001
1.813824e+003,2.698077e+001
1.814788e+003,2.742963e+001
1.815752e+003,2.740228e+001
1.816716e+003,2.674622e+001
1.817681e+003,2.519147e+001
1.818645e+003,2.272894e+001
1.819609e+003,2.113232e+001
1.820573e+003,2.169202e+001
1.821537e+003,2.363025e+001
1.822502e+003,2.603699e+001
1.823466e+003,2.849725e+001
1.824430e+003,2.863483e+001
1.825394e+003,2.537109e+001
1.826359e+003,2.279718e+001
1.827323e+003,2.198120e+001
1.828287e+003,2.222876e+001
1.829251e+003,2.307172e+001
1.830216e+003,2.388855e+001
1.831180e+003,2.475122e+001
1.832144e+003,2.505933e+001
1.833108e+003,2.382483e+001
1.834073e+003,2.188470e+001
1.835037e+003,2.132697e+001
1.836001e+003,2.276776e+001
1.836965e+003,2.488171e+001
1.837929e+003,2.666583e+001
1.838894e+003,2.788495e+001
1.839858e+003,2.752618e+001
1.840822e+003,2.553552e+001
1.841786e+003,2.462787e+001
1.842751e+003,2.553674e+001
1.843715e+003,2.580499e+001
1.844679e+003,2.417645e+001
1.845643e+003,2.323218e+001
1.846608e+003,2.456763e+001
1.847572e+003,2.600745e+001
1.848536e+003,2.576172e+001
1.849500e+003,2.478064e+001
1.850464e+003,2.435748e+001
1.851429e+003,2.457721e+001
1.852393e+003,2.537982e+001
1.853357e+003,2.681543e+001
1.854321e+003,2.761353e+001
1.855286e+003,2.733209e+001
1.856250e+003,2.670624e+001
1.857214e+003,2.608044e+001
1.858178e+003,2.563501e+001
1.859143e+003,2.583325e+001
1.860107e+003,2.644781e+001
1.861071e+003,2.631195e+001
1.862035e+003,2.489850e+001
1.863000e+003,2.317535e+001
1.863964e+003,2.216919e+001
1.864928e+003,2.172754e+001
1.865892e+003,2.140228e+001
1.866856e+003,2.142572e+001
1.867821e+003,2.225726e+001
1.868785e+003,2.395007e+001
1.869749e+003,2.459546e+001
1.870713e+003,2.350751e+001
1.871678e+003,2.295984e+001
1.872642e+003,2.347278e+001
1.873606e+003,2.495978e+001
1.874570e+003,2.822992e+001
1.875535e+003,3.140283e+001
1.876499e+003,3.199512e+001
1.877463e+003,3.035699e+001
1.878427e+003,2.824567e+001
1.879391e+003,2.589978e+001
1.880356e+003,2.392047e+001
1.881320e+003,2.221307e+001
1.882284e+003,2.122150e+001
1.883248e+003,2.244641e+001
1.884213e+003,2.490363e+001
1.885177e+003,2.613721e+001
1.886141e+003,2.598639e+001
1.887105e+003,2.572052e+001
1.888070e+003,2.575220e+001
1.889034e+003,2.554291e+001
1.889998e+003,2.484827e+001
1.890962e+003,2.427960e+001
1.891927e+003,2.437036e+001
1.892891e+003,2.455505e+001
1.893855e+003,2.362201e+001
1.894819e+003,2.089014e+001
1.895783e+003,2.027313e+001
1.896748e+003,2.387738e+001
1.897712e+003,2.694440e+001
1.898676e+003,2.837817e+001
1.899640e+003,2.885248e+001
1.900605e+003,2.804523e+001
1.901569e+003,2.675055e+001
1.902533e+003,2.547009e+001
1.903497e+003,2.444525e+001
1.904462e+003,2.440485e+001
1.905426e+003,2.554883e+001
1.906390e+003,2.669482e+001
1.907354e+003,2.751465e+001
1.908318e+003,2.813031e+001
1.909283e+003,2.792303e+001
1.910247e+003,2.709271e+001
1.911211e+003,2.623938e+001
1.912175e+003,2.559967e+001
1.913140e+003,2.553241e+001
1.914104e+003,2.610956e+001
1.915068e+003,2.708673e+001
1.916032e+003,2.814606e+001
1.916997e+003,2.783142e+001
1.917961e+003,2.484515e+001
1.918925e+003,2.116913e+001
1.919889e+003,2.058484e+001
1.920854e+003,2.270215e+001
1.921818e+003,2.446912e+001
1.922782e+003,2.628540e+001
1.923746e+003,2.668005e+001
1.924710e+003,2.456323e+001
1.925675e+003,2.341858e+001
1.926639e+003,2.513898e+001
1.927603e+003,2.668927e+001
1.928567e+003,2.620880e+001
1.929532e+003,2.483069e+001
1.930496e+003,2.369678e+001
1.931460e+003,2.308539e+001
1.932424e+003,2.339661e+001
1.933389e+003,2.462970e+001
1.934353e+003,2.548480e+001
1.935317e+003,2.504163e+001
1.936281e+003,2.472156e+001
1.937245e+003,2.645105e+001
1.938210e+003,2.796008e+001
1.939174e+003,2.548822e+001
1.940138e+003,2.140271e+001
1.941102e+003,2.096497e+001
1.942067e+003,2.407458e+001
1.943031e+003,2.664801e+001
1.943995e+003,2.683655e+001
1.944959e+003,2.551501e+001
1.945924e+003,2.366138e+001
1.946888e+003,2.198920e+001
1.947852e+003,2.133521e+001
1.948816e+003,2.147748e+001
1.949781e+003,2.192316e+001
1.950745e+003,2.255066e+001
1.951709e+003,2.193475e+001
1.952673e+003,1.989294e+001
1.953637e+003,1.917310e+001
1.954602e+003,2.084259e+001
1.955566e+003,2.291394e+001
1.956530e+003,2.423761e+001
1.957494e+003,2.518250e+001
1.958459e+003,2.619049e+001
1.959423e+003,2.681586e+001
1.960387e+003,2.610181e+001
1.961351e+003,2.378564e+001
1.962316e+003,2.208417e+001
1.963280e+003,2.141315e+001
1.964244e+003,2.130316e+001
1.965208e+003,2.255383e+001
1.966172e+003,2.346100e+001
1.967137e+003,2.190912e+001
1.968101e+003,1.972797e+001
1.969065e+003,1.932733e+001
1.970029e+003,2.024738e+001
1.970994e+003,2.142004e+001
1.971958e+003,2.274567e+001
1.972922e+003,2.333734e+001
1.973886e+003,2.179950e+001
1.974851e+003,1.971320e+001
1.975815e+003,1.943256e+001
1.976779e+003,2.057983e+001
1.977743e+003,2.292596e+001
1.978708e+003,2.570306e+001
1.979672e+003,2.574347e+001
1.980636e+003,2.295428e+001
1.981600e+003,2.087518e+001
1.982564e+003,2.080145e+001
1.983529e+003,2.084875e+001
1.984493e+003,1.964667e+001
1.985457e+003,1.901056e+001
1.986421e+003,2.142114e+001
1.987386e+003,2.583984e+001
1.988350e+003,2.829150e+001
1.989314e+003,2.821149e+001
1.990278e+003,2.728949e+001
1.991243e+003,2.552173e+001
1.992207e+003,2.372192e+001
1.993171e+003,2.226514e+001
1.994135e+003,2.114606e+001
1.995099e+003,1.997504e+001
1.996064e+003,1.933368e+001
1.997028e+003,1.963562e+001
1.997992e+003,2.055035e+001
1.998956e+003,2.207166e+001
1.999921e+003,2.400378e+001
2.000885e+003,2.432690e+001
2.001849e+003,2.169647e+001
2.002813e+003,1.966772e+001
2.003778e+003,2.021313e+001
2.004742e+003,2.123120e+001
2.005706e+003,2.144495e+001
2.006670e+003,2.169818e+001
2.007635e+003,2.295874e+001
2.008599e+003,2.471588e+001
2.009563e+003,2.662048e+001
2.010527e+003,2.798248e+001
2.011491e+003,2.695612e+001
2.012456e+003,2.322827e+001
2.013420e+003,1.997485e+001
2.014384e+003,1.954669e+001
2.015348e+003,2.064282e+001
2.016313e+003,2.216296e+001
2.017277e+003,2.355017e+001
2.018241e+003,2.356134e+001
2.019205e+003,2.265692e+001
2.020170e+003,2.190607e+001
2.021134e+003,2.146252e+001
2.022098e+003,2.213312e+001
2.023062e+003,2.425348e+001
2.024026e+003,2.638232e+001
2.024991e+003,2.738013e+001
2.025955e+003,2.731012e+001
2.026919e+003,2.640234e+001
2.027883e+003,2.481635e+001
2.028848e+003,2.292786e+001
2.029812e+003,2.090564e+001
2.030776e+003,1.965491e+001
2.031740e+003,1.856256e+001
2.032705e+003,1.777155e+001
2.033669e+003,1.796082e+001
2.034633e+003,1.856659e+001
2.035597e+003,1.962567e+001
2.036562e+003,2.085425e+001
2.037526e+003,2.131360e+001
2.038490e+003,2.145197e+001
2.039454e+003,2.305139e+001
2.040418e+003,2.589020e+001
2.041383e+003,2.649048e+001
2.042347e+003,2.376306e+001
2.043311e+003,2.232910e+001
2.044275e+003,2.385382e+001
2.045240e+003,2.476385e+001
2.046204e+003,2.347546e+001
2.047168e+003,2.163306e+001
2.048132e+003,1.931305e+001
2.049097e+003,1.806226e+001
2.050061e+003,1.992371e+001
2.051025e+003,2.350647e+001
2.051989e+003,2.641431e+001
2.052954e+003,2.837354e+001
2.053918e+003,2.861871e+001
2.054882e+003,2.599658e+001
2.055846e+003,2.329224e+001
2.056811e+003,2.178326e+001
2.057775e+003,2.094318e+001
2.058739e+003,2.072876e+001
2.059703e+003,2.129266e+001
2.060667e+003,2.298773e+001
2.061632e+003,2.498114e+001
2.062596e+003,2.621539e+001
2.063560e+003,2.639496e+001
2.064524e+003,2.518719e+001
2.065489e+003,2.281512e+001
2.066453e+003,2.090863e+001
2.067417e+003,2.026520e+001
2.068381e+003,2.009802e+001
2.069345e+003,2.029974e+001
2.070310e+003,2.044495e+001
2.071274e+003,1.940057e+001
2.072238e+003,1.829822e+001
2.073202e+003,1.939783e+001
2.074167e+003,2.189526e+001
2.075131e+003,2.258929e+001
2.076095e+003,2.080212e+001
2.077059e+003,1.904822e+001
2.078023e+003,1.900574e+001
2.078988e+003,1.931323e+001
2.079952e+003,1.773279e+001
2.080916e+003,1.524066e+001
2.081880e+003,1.658575e+001
2.082845e+003,2.188751e+001
2.083809e+003,2.315759e+001
2.084773e+003,1.989154e+001
2.085737e+003,1.768994e+001
2.086702e+003,1.739941e+001
2.087666e+003,1.761365e+001
2.088630e+003,1.791571e+001
2.089594e+003,1.881836e+001
2.090559e+003,2.077856e+001
2.091523e+003,2.242816e+001
2.092487e+003,2.180151e+001
2.093451e+003,1.956244e+001
2.094416e+003,1.861633e+001
2.095380e+003,1.912726e+001
2.096344e+003,1.939026e+001
2.097308e+003,1.961353e+001
2.098272e+003,1.989545e+001
2.099237e+003,2.033771e+001
2.100201e+003,2.000739e+001
2.101165e+003,1.751520e+001
2.102129e+003,1.549628e+001
2.103094e+003,1.687860e+001
2.104058e+003,1.972906e+001
2.105022e+003,2.059448e+001
2.105986e+003,1.991193e+001
2.106951e+003,1.970062e+001
2.107915e+003,1.967249e+001
2.108879e+003,1.975885e+001
2.109843e+003,2.096082e+001
2.110808e+003,2.103326e+001
2.111772e+003,1.883228e+001
2.112736e+003,1.683240e+001
2.113700e+003,1.560010e+001
2.114665e+003,1.487372e+001
2.115629e+003,1.488300e+001
2.116593e+003,1.536237e+001
2.117557e+003,1.631409e+001
2.118521e+003,1.766760e+001
2.119486e+003,1.764081e+001
2.120450e+003,1.516711e+001
2.121414e+003,1.349432e+001
2.122378e+003,1.369299e+001
2.123343e+003,1.389154e+001
2.124307e+003,1.424469e+001
2.125271e+003,1.470178e+001
2.126235e+003,1.481573e+001
2.127199e+003,1.487677e+001
2.128164e+003,1.482489e+001
2.129128e+003,1.478662e+001
2.130092e+003,1.571399e+001
2.131056e+003,1.760828e+001
2.132021e+003,1.876581e+001
2.132985e+003,1.820874e+001
2.133949e+003,1.696625e+001
2.134913e+003,1.512994e+001
2.135877e+003,1.365033e+001
2.136842e+003,1.413928e+001
2.137806e+003,1.570978e+001
2.138770e+003,1.689935e+001
2.139734e+003,1.737891e+001
2.140699e+003,1.701270e+001
2.141663e+003,1.588641e+001
2.142627e+003,1.468152e+001
2.143591e+003,1.398035e+001
2.144556e+003,1.363171e+001
2.145520e+003,1.328107e+001
2.146484e+003,1.315186e+001
2.147448e+003,1.348853e+001
2.148413e+003,1.362543e+001
2.149377e+003,1.315839e+001
2.150341e+003,1.270697e+001
2.151305e+003,1.289398e+001
2.152270e+003,1.354309e+001
2.153234e+003,1.408838e+001
2.154198e+003,1.420056e+001
2.155162e+003,1.388770e+001
2.156126e+003,1.346948e+001
2.157091e+003,1.345221e+001
2.158055e+003,1.415204e+001
2.159019e+003,1.530145e+001
2.159983e+003,1.637067e+001
2.160948e+003,1.694165e+001
2.161912e+003,1.720166e+001
2.162876e+003,1.684473e+001
2.163840e+003,1.444720e+001
2.164805e+003,1.121729e+001
2.165769e+003,1.026105e+001
2.166733e+003,1.126691e+001
2.167697e+003,1.161298e+001
2.168662e+003,1.082220e+001
2.169626e+003,1.042993e+001
2.170590e+003,1.094025e+001
2.171554e+003,1.144202e+001
2.172519e+003,1.156598e+001
2.173483e+003,1.169598e+001
2.174447e+003,1.231946e+001
2.175411e+003,1.307404e+001
2.176375e+003,1.270514e+001
2.177340e+003,1.185193e+001
2.178304e+003,1.212537e+001
2.179268e+003,1.314697e+001
2.180232e+003,1.397144e+001
2.181197e+003,1.443182e+001
2.182161e+003,1.482727e+001
2.183125e+003,1.540417e+001
2.184089e+003,1.521136e+001
2.185053e+003,1.285748e+001
2.186018e+003,9.839111e+000
2.186982e+003,8.726013e+000
2.187946e+003,8.953308e+000
2.188910e+003,9.543335e+000
2.189875e+003,1.032635e+001
2.190839e+003,1.082977e+001
2.191803e+003,1.125604e+001
2.192767e+003,1.185638e+001
2.193731e+003,1.238037e+001
2.194696e+003,1.274792e+001
2.195660e+003,1.301923e+001
2.196624e+003,1.238757e+001
2.197588e+003,9.932739e+000
2.198553e+003,7.234985e+000
2.199517e+003,7.080688e+000
2.200481e+003,8.348572e+000
2.201445e+003,8.275635e+000
2.202410e+003,7.519470e+000
2.203374e+003,7.781860e+000
2.204338e+003,8.774353e+000
2.205302e+003,8.819397e+000
2.206267e+003,7.673401e+000
2.207231e+003,7.093079e+000
2.208195e+003,7.908569e+000
2.209159e+003,9.252441e+000
2.210124e+003,1.072229e+001
2.211088e+003,1.156354e+001
2.212052e+003,9.235107e+000
2.213016e+003,5.614197e+000
2.213980e+003,5.430359e+000
2.214945e+003,7.697083e+000
2.215909e+003,1.073248e+001
2.216873e+003,1.394214e+001
2.217837e+003,1.488702e+001
2.218802e+003,1.339020e+001
2.219766e+003,1.122614e+001
2.220730e+003,9.202026e+000
2.221694e+003,8.272949e+000
2.222659e+003,9.370789e+000
2.223623e+003,1.069403e+001
2.224587e+003,9.968018e+000
2.225551e+003,8.501709e+000
2.226516e+003,7.238342e+000
2.227480e+003,6.104675e+000
2.228444e+003,6.903503e+000
2.229408e+003,9.020691e+000
2.230373e+003,9.892334e+000
2.231337e+003,9.468872e+000
2.232301e+003,8.703735e+000
2.233265e+003,7.820984e+000
2.234229e+003,7.131958e+000
2.235194e+003,6.901794e+000
2.236158e+003,6.330933e+000
2.237122e+003,4.035095e+000
2.238086e+003,1.995300e+000
2.239051e+003,4.150513e+000
2.240015e+003,7.751221e+000
2.240979e+003,8.371460e+000
2.241943e+003,7.319519e+000
2.242907e+003,6.611511e+000
2.243872e+003,6.646423e+000
2.244836e+003,8.325073e+000
2.245800e+003,1.083124e+001
2.246764e+003,1.102838e+001
2.247729e+003,8.094604e+000
2.248693e+003,5.156738e+000
2.249657e+003,4.164063e+000
2.250621e+003,4.443298e+000
2.251585e+003,5.881165e+000
2.252550e+003,7.705811e+000
2.253514e+003,9.433960e+000
2.254478e+003,1.033997e+001
2.255442e+003,9.527588e+000
2.256407e+003,7.914246e+000
2.257371e+003,6.288818e+000
2.258335e+003,5.073364e+000
2.259299e+003,5.086731e+000
2.260264e+003,6.205322e+000
2.261228e+003,7.298218e+000
2.262192e+003,8.328369e+000
2.263156e+003,9.050720e+000
2.264121e+003,8.682312e+000
2.265085e+003,7.887268e+000
2.266049e+003,6.750549e+000
2.267013e+003,5.935486e+000
2.267978e+003,6.280029e+000
2.268942e+003,7.233521e+000
2.269906e+003,8.745789e+000
2.270870e+003,9.712097e+000
2.271834e+003,7.414124e+000
2.272799e+003,2.687439e+000
2.273763e+003,8.760986e-001
2.274727e+003,3.842834e+000
2.275691e+003,6.417419e+000
2.276656e+003,6.152161e+000
2.277620e+003,5.847107e+000
2.278584e+003,5.813599e+000
2.279548e+003,6.383667e+000
2.280513e+003,8.680359e+000
2.281477e+003,1.083240e+001
2.282441e+003,1.145868e+001
2.283405e+003,1.101013e+001
2.284370e+003,1.005963e+001
2.285334e+003,9.027893e+000
2.286298e+003,7.940979e+000
2.287262e+003,6.497253e+000
2.288227e+003,6.443604e+000
2.289191e+003,9.654175e+000
2.290155e+003,1.103662e+001
2.291119e+003,9.153503e+000
2.292083e+003,7.345825e+000
2.293048e+003,5.015015e+000
2.294012e+003,4.115845e+000
2.294976e+003,6.876038e+000
2.295940e+003,1.002179e+001
2.296905e+003,1.039636e+001
2.297869e+003,9.483582e+000
2.298833e+003,1.037671e+001
2.299797e+003,1.245789e+001
2.300761e+003,1.155493e+001
2.301726e+003,7.043396e+000
2.302690e+003,5.302368e+000
2.303654e+003,6.849304e+000
2.304618e+003,8.406677e+000
2.305583e+003,9.990295e+000
2.306547e+003,1.043634e+001
2.307511e+003,9.136353e+000
2.308475e+003,8.256165e+000
2.309439e+003,9.011597e+000
2.310404e+003,1.053247e+001
2.311368e+003,1.201361e+001
2.312332e+003,1.281665e+001
2.313296e+003,1.164557e+001
2.314261e+003,9.366760e+000
2.315225e+003,9.844604e+000
2.316189e+003,1.260535e+001
2.317153e+003,1.303918e+001
2.318118e+003,1.111237e+001
2.319082e+003,1.022113e+001
2.320046e+003,1.107196e+001
2.321010e+003,1.255737e+001
2.321975e+003,1.431531e+001
2.322939e+003,1.631787e+001
2.323903e+003,1.825409e+001
2.324867e+003,1.966449e+001
2.325832e+003,2.024622e+001
2.326796e+003,2.050043e+001
2.327760e+003,2.114716e+001
2.328724e+003,2.267493e+001
2.329688e+003,2.648676e+001
2.330653e+003,3.017651e+001
2.331617e+003,2.835687e+001
2.332581e+003,2.341174e+001
2.333545e+003,2.214850e+001
2.334510e+003,2.474561e+001
2.335474e+003,2.676312e+001
2.336438e+003,2.651709e+001
2.337402e+003,2.482758e+001
2.338367e+003,2.187744e+001
2.339331e+003,2.016064e+001
2.340295e+003,2.214038e+001
2.341259e+003,2.445087e+001
2.342224e+003,2.461963e+001
2.343188e+003,2.483490e+001
2.344152e+003,2.770404e+001
2.345116e+003,3.071118e+001
2.346081e+003,3.041235e+001
2.347045e+003,2.818365e+001
2.348009e+003,2.657861e+001
2.348973e+003,2.604620e+001
2.349938e+003,2.702271e+001
2.350902e+003,2.973016e+001
2.351866e+003,3.146619e+001
2.352830e+003,3.056030e+001
2.353794e+003,3.204138e+001
2.354759e+003,3.848535e+001
2.355723e+003,4.321112e+001
2.356687e+003,4.433862e+001
2.357651e+003,4.388452e+001
2.358615e+003,4.169495e+001
2.359580e+003,3.993292e+001
2.360544e+003,4.106940e+001
2.361508e+003,4.343964e+001
2.362472e+003,4.387885e+001
2.363437e+003,4.322095e+001
2.364401e+003,4.466913e+001
2.365365e+003,4.810907e+001
2.366329e+003,4.977344e+001
2.367293e+003,4.937549e+001
2.368258e+003,5.103052e+001
2.369222e+003,5.555585e+001
2.370186e+003,5.852045e+001
2.371150e+003,5.863623e+001
2.372115e+003,5.749396e+001
2.373079e+003,5.574963e+001
2.374043e+003,5.497345e+001
2.375007e+003,5.701025e+001
2.375972e+003,6.050909e+001
2.376936e+003,6.330090e+001
2.377900e+003,6.560431e+001
2.378864e+003,6.815198e+001
2.379829e+003,7.011652e+001
2.380793e+003,6.970300e+001
2.381757e+003,6.809979e+001
2.382721e+003,6.799493e+001
2.383686e+003,6.904352e+001
2.384650e+003,6.884937e+001
2.385614e+003,6.736365e+001
2.386578e+003,6.678516e+001
2.387542e+003,6.784375e+001
2.388507e+003,7.017572e+001
2.389471e+003,7.493549e+001
2.390435e+003,7.821588e+001
2.391399e+003,7.724536e+001
2.392364e+003,7.560028e+001
2.393328e+003,7.364465e+001
2.394292e+003,7.302191e+001
2.395256e+003,7.670703e+001
2.396221e+003,8.075305e+001
2.397185e+003,8.046259e+001
2.398149e+003,7.798486e+001
2.399113e+003,7.792853e+001
2.400078e+003,7.978766e+001
2.401042e+003,7.969617e+001
2.402006e+003,7.677057e+001
2.402970e+003,7.716998e+001
2.403935e+003,8.281549e+001
2.404899e+003,8.485773e+001
2.405863e+003,8.156952e+001
2.406827e+003,7.924377e+001
2.407792e+003,7.979639e+001
2.408756e+003,8.111731e+001
2.409720e+003,8.166998e+001
2.410684e+003,8.254205e+001
2.411648e+003,8.529718e+001
2.412613e+003,8.823389e+001
2.413577e+003,8.833679e+001
2.414541e+003,8.703937e+001
2.415505e+003,8.675946e+001
2.416469e+003,8.682501e+001
2.417434e+003,8.690021e+001
2.418398e+003,8.729529e+001
2.419362e+003,8.864709e+001
2.420326e+003,9.027972e+001
2.421291e+003,8.933472e+001
2.422255e+003,8.611456e+001
2.423219e+003,8.553613e+001
2.424183e+003,8.940833e+001
2.425147e+003,9.293549e+001
2.426112e+003,9.332025e+001
2.427076e+003,9.295007e+001
2.428040e+003,9.200409e+001
2.429004e+003,9.140607e+001
2.429969e+003,9.259326e+001
2.430933e+003,9.383075e+001
2.431897e+003,9.385779e+001
2.432861e+003,9.346741e+001
2.433826e+003,9.303198e+001
2.434790e+003,9.292200e+001
2.435754e+003,9.431995e+001
2.436718e+003,9.635449e+001
2.437683e+003,9.577917e+001
2.438647e+003,9.247900e+001
2.439611e+003,9.051349e+001
2.440575e+003,9.017493e+001
2.441540e+003,8.979437e+001
2.442504e+003,8.916693e+001
2.443468e+003,8.918604e+001
2.444432e+003,9.019226e+001
2.445396e+003,8.978912e+001
2.446361e+003,8.697528e+001
2.447325e+003,8.434076e+001
2.448289e+003,8.368005e+001
2.449253e+003,8.357898e+001
2.450218e+003,8.271692e+001
2.451182e+003,8.175348e+001
2.452146e+003,8.069220e+001
2.453110e+003,7.928156e+001
2.454075e+003,7.862970e+001
2.455039e+003,7.788837e+001
2.456003e+003,7.524408e+001
2.456967e+003,7.205768e+001
2.457932e+003,6.944647e+001
2.458896e+003,6.783380e+001
2.459860e+003,6.867047e+001
2.460824e+003,7.143884e+001
2.461789e+003,7.309851e+001
2.462753e+003,7.325763e+001
2.463717e+003,7.256146e+001
2.464681e+003,6.951959e+001
2.465646e+003,6.815717e+001
2.466610e+003,7.028644e+001
2.467574e+003,7.099237e+001
2.468538e+003,6.922339e+001
2.469502e+003,6.724438e+001
2.470467e+003,6.565387e+001
2.471431e+003,6.425360e+001
2.472395e+003,6.283508e+001
2.473359e+003,6.180890e+001
2.474323e+003,6.216205e+001
2.475288e+003,6.361035e+001
2.476252e+003,6.443353e+001
2.477216e+003,6.444586e+001
2.478180e+003,6.329028e+001
2.479145e+003,6.138989e+001
2.480109e+003,6.144446e+001
2.481073e+003,6.280206e+001
2.482037e+003,6.164868e+001
2.483001e+003,5.854865e+001
2.483966e+003,5.735901e+001
2.484930e+003,5.858698e+001
2.485894e+003,6.004852e+001
2.486858e+003,6.113348e+001
2.487823e+003,6.074194e+001
2.488787e+003,5.713300e+001
2.489751e+003,5.468091e+001
2.490715e+003,5.513629e+001
2.491680e+003,5.616962e+001
2.492644e+003,5.789172e+001
2.493608e+003,5.912085e+001
2.494572e+003,5.875476e+001
2.495537e+003,5.749890e+001
2.496501e+003,5.552332e+001
2.497465e+003,5.344324e+001
2.498429e+003,5.281793e+001
2.499394e+003,5.336566e+001
2.500358e+003,5.277948e+001
2.501322e+003,5.129675e+001
2.502286e+003,5.227100e+001
2.503250e+003,5.526367e+001
2.504215e+003,5.682800e+001
2.505179e+003,5.676782e+001
2.506143e+003,5.695337e+001
2.507107e+003,5.765393e+001
2.508072e+003,5.776202e+001
2.509036e+003,5.713000e+001
2.510000e+003,5.678680e+001
2.510964e+003,5.728394e+001
2.511929e+003,5.746265e+001
2.512893e+003,5.585687e+001
2.513857e+003,5.462994e+001
2.514821e+003,5.522534e+001
2.515786e+003,5.576550e+001
2.516750e+003,5.538574e+001
2.517714e+003,5.545221e+001
2.518678e+003,5.728400e+001
2.519643e+003,5.876953e+001
2.520607e+003,5.783453e+001
2.521571e+003,5.608057e+001
2.522535e+003,5.590826e+001
2.523500e+003,5.655566e+001
2.524464e+003,5.588422e+001
2.525428e+003,5.408038e+001
2.526392e+003,5.281073e+001
2.527356e+003,5.240009e+001
2.528321e+003,5.245276e+001
2.529285e+003,5.274786e+001
2.530249e+003,5.452673e+001
2.531213e+003,5.718268e+001
2.532177e+003,5.777582e+001
2.533142e+003,5.622046e+001
2.534106e+003,5.535547e+001
2.535070e+003,5.629749e+001
2.536034e+003,5.729376e+001
2.536999e+003,5.665723e+001
2.537963e+003,5.550842e+001
2.538927e+003,5.536646e+001
2.539891e+003,5.541125e+001
2.540855e+003,5.512799e+001
2.541820e+003,5.496417e+001
2.542784e+003,5.490240e+001
2.543748e+003,5.433972e+001
2.544712e+003,5.285175e+001
2.545677e+003,5.149969e+001
2.546641e+003,5.139911e+001
2.547605e+003,5.220325e+001
2.548569e+003,5.378125e+001
2.549534e+003,5.585529e+001
2.550498e+003,5.552673e+001
2.551462e+003,5.360352e+001
2.552426e+003,5.290765e+001
2.553391e+003,5.291309e+001
2.554355e+003,5.290833e+001
2.555319e+003,5.267316e+001
2.556283e+003,5.214923e+001
2.557248e+003,5.160547e+001
2.558212e+003,5.058173e+001
2.559176e+003,4.859790e+001
2.560140e+003,4.700739e+001
2.561104e+003,4.650818e+001
2.562069e+003,4.648602e+001
2.563033e+003,4.776807e+001
2.563997e+003,4.800800e+001
2.564961e+003,4.573120e+001
2.565926e+003,4.435187e+001
2.566890e+003,4.525049e+001
2.567854e+003,4.642322e+001
2.568818e+003,4.652283e+001
2.569783e+003,4.579504e+001
2.570747e+003,4.487488e+001
2.571711e+003,4.406775e+001
2.572675e+003,4.306891e+001
2.573640e+003,4.216827e+001
2.574604e+003,4.266150e+001
2.575568e+003,4.349902e+001
2.576532e+003,4.388330e+001
2.577497e+003,4.350287e+001
2.578461e+003,3.990765e+001
2.579425e+003,3.555835e+001
2.580389e+003,3.531805e+001
2.581354e+003,3.796228e+001
2.582318e+003,3.956409e+001
2.583282e+003,3.978168e+001
2.584246e+003,3.923340e+001
2.585210e+003,3.773267e+001
2.586175e+003,3.743268e+001
2.587139e+003,3.856946e+001
2.588103e+003,3.883545e+001
2.589067e+003,3.786188e+001
2.590031e+003,3.749536e+001
2.590996e+003,3.805328e+001
2.591960e+003,3.738531e+001
2.592924e+003,3.513678e+001
2.593888e+003,3.390668e+001
2.594853e+003,3.500189e+001
2.595817e+003,3.630609e+001
2.596781e+003,3.569861e+001
2.597745e+003,3.473633e+001
2.598709e+003,3.612335e+001
2.599674e+003,3.785565e+001
2.600638e+003,3.702136e+001
2.601602e+003,3.573981e+001
2.602566e+003,3.673950e+001
2.603531e+003,3.763824e+001
2.604495e+003,3.569366e+001
2.605459e+003,3.327325e+001
2.606423e+003,3.274731e+001
2.607388e+003,3.306921e+001
2.608352e+003,3.273932e+001
2.609316e+003,3.209387e+001
2.610280e+003,3.175269e+001
2.611245e+003,3.192017e+001
2.612209e+003,3.261957e+001
2.613173e+003,3.325897e+001
2.614137e+003,3.291901e+001
2.615102e+003,3.162854e+001
2.616066e+003,2.994794e+001
2.617030e+003,2.865521e+001
2.617994e+003,2.900403e+001
2.618958e+003,3.098553e+001
2.619923e+003,3.126270e+001
2.620887e+003,2.753418e+001
2.621851e+003,2.542664e+001
2.622815e+003,2.764557e+001
2.623780e+003,2.883710e+001
2.624744e+003,2.847321e+001
2.625708e+003,2.719086e+001
2.626672e+003,2.509973e+001
2.627637e+003,2.450745e+001
2.628601e+003,2.637799e+001
2.629565e+003,2.807361e+001
2.630529e+003,2.774384e+001
2.631494e+003,2.678595e+001
2.632458e+003,2.616669e+001
2.633422e+003,2.638007e+001
2.634386e+003,2.906177e+001
2.635351e+003,3.120367e+001
2.636315e+003,3.041034e+001
2.637279e+003,2.872040e+001
2.638243e+003,2.764001e+001
2.639208e+003,2.684363e+001
2.640172e+003,2.452643e+001
2.641136e+003,2.211005e+001
2.642100e+003,2.226917e+001
2.643064e+003,2.417749e+001
2.644029e+003,2.630695e+001
2.644993e+003,2.857367e+001
2.645957e+003,2.803571e+001
2.646921e+003,2.550812e+001
2.647885e+003,2.521692e+001
2.648850e+003,2.619409e+001
2.649814e+003,2.499255e+001
2.650778e+003,2.230951e+001
2.651742e+003,2.234119e+001
2.652707e+003,2.484259e+001
2.653671e+003,2.586243e+001
2.654635e+003,2.497229e+001
2.655599e+003,2.439697e+001
2.656563e+003,2.433124e+001
2.657528e+003,2.346417e+001
2.658492e+003,1.945258e+001
2.659456e+003,1.827209e+001
2.660420e+003,2.228113e+001
2.661385e+003,2.454645e+001
2.662349e+003,2.343402e+001
2.663313e+003,2.237793e+001
2.664277e+003,2.243549e+001
2.665242e+003,2.295667e+001
2.666206e+003,2.366742e+001
2.667170e+003,2.349805e+001
2.668134e+003,2.101355e+001
2.669099e+003,1.889191e+001
2.670063e+003,2.070801e+001
2.671027e+003,2.252051e+001
2.671991e+003,2.066760e+001
2.672956e+003,1.889886e+001
2.673920e+003,2.072400e+001
2.674884e+003,2.221985e+001
2.675848e+003,2.040240e+001
2.676813e+003,1.806226e+001
2.677777e+003,1.781793e+001
2.678741e+003,1.833264e+001
2.679705e+003,1.808832e+001
2.680669e+003,1.783862e+001
2.681634e+003,1.693262e+001
2.682598e+003,1.572040e+001
2.683562e+003,1.753290e+001
2.684526e+003,2.029327e+001
2.685491e+003,2.020990e+001
2.686455e+003,1.935382e+001
2.687419e+003,2.026886e+001
2.688383e+003,2.141461e+001
2.689348e+003,2.086560e+001
2.690312e+003,1.919342e+001
2.691276e+003,1.746552e+001
2.692240e+003,1.617432e+001
2.693205e+003,1.664313e+001
2.694169e+003,1.811627e+001
2.695133e+003,1.697687e+001
2.696097e+003,1.374402e+001
2.697062e+003,1.291449e+001
2.698026e+003,1.465424e+001
2.698990e+003,1.497070e+001
2.699954e+003,1.330121e+001
2.700918e+003,1.241302e+001
2.701883e+003,1.293115e+001
2.702847e+003,1.348492e+001
2.703811e+003,1.420953e+001
2.704775e+003,1.489984e+001
2.705740e+003,1.588123e+001
2.706704e+003,1.607306e+001
2.707668e+003,1.472424e+001
2.708632e+003,1.424182e+001
2.709596e+003,1.508490e+001
2.710561e+003,1.519745e+001
2.711525e+003,1.402808e+001
2.712489e+003,1.229816e+001
2.713453e+003,1.023694e+001
2.714417e+003,8.778259e+000
2.715382e+003,9.085449e+000
2.716346e+003,9.664795e+000
2.717310e+003,1.049982e+001
2.718274e+003,1.129865e+001
2.719239e+003,9.442749e+000
2.720203e+003,8.728882e+000
2.721167e+003,1.201746e+001
2.722131e+003,1.446851e+001
2.723096e+003,1.384998e+001
2.724060e+003,1.270032e+001
2.725024e+003,1.290839e+001
2.725988e+003,1.310406e+001
2.726953e+003,1.164917e+001
2.727917e+003,1.038672e+001
2.728881e+003,1.142352e+001
2.729845e+003,1.197137e+001
2.730810e+003,9.357544e+000
2.731774e+003,6.270935e+000
2.732738e+003,6.462402e+000
2.733702e+003,8.389099e+000
2.734667e+003,8.344971e+000
2.735631e+003,6.960999e+000
2.736595e+003,5.933289e+000
2.737559e+003,5.522522e+000
2.738523e+003,6.555481e+000
2.739488e+003,8.721863e+000
2.740452e+003,9.170410e+000
2.741416e+003,8.635681e+000
2.742380e+003,9.845520e+000
2.743345e+003,1.169281e+001
2.744309e+003,1.237714e+001
2.745273e+003,1.201495e+001
2.746237e+003,1.126099e+001
2.747202e+003,9.989929e+000
2.748166e+003,7.129517e+000
2.749130e+003,3.659973e+000
2.750094e+003,2.950439e+000
2.751059e+003,4.678101e+000
2.752023e+003,5.765320e+000
2.752987e+003,6.058105e+000
2.753951e+003,6.508850e+000
2.754916e+003,7.094482e+000
2.755880e+003,5.820862e+000
2.756844e+003,3.471619e+000
2.757808e+003,3.266418e+000
2.758772e+003,5.000671e+000
2.759737e+003,6.187439e+000
2.760701e+003,6.337585e+000
2.761665e+003,6.370911e+000
2.762629e+003,6.656860e+000
2.763594e+003,6.502747e+000
2.764558e+003,5.480347e+000
2.765522e+003,5.132690e+000
2.766486e+003,5.748230e+000
2.767450e+003,5.419189e+000
2.768415e+003,4.402283e+000
2.769379e+003,4.736145e+000
2.770343e+003,6.053711e+000
2.771307e+003,7.337585e+000
2.772271e+003,8.777161e+000
2.773236e+003,8.991699e+000
2.774200e+003,7.206116e+000
2.775164e+003,7.374451e+000
2.776128e+003,8.688904e+000
2.777093e+003,7.328857e+000
2.778057e+003,4.679321e+000
2.779021e+003,2.562561e+000
2.779985e+003,1.959961e+000
2.780950e+003,2.984680e+000
2.781914e+003,3.928284e+000
2.782878e+003,5.390564e+000
2.783842e+003,8.682007e+000
2.784807e+003,1.058667e+001
2.785771e+003,9.294617e+000
2.786735e+003,7.829407e+000
2.787699e+003,5.458984e+000
2.788664e+003,4.925415e+000
2.789628e+003,8.010925e+000
2.790592e+003,9.047363e+000
2.791556e+003,6.302490e+000
2.792521e+003,3.555298e+000
2.793485e+003,2.302734e+000
2.794449e+003,2.752075e+000
2.795413e+003,5.524841e+000
2.796377e+003,8.385559e+000
2.797342e+003,9.176025e+000
2.798306e+003,9.149353e+000
2.799270e+003,8.659973e+000
2.800234e+003,8.092712e+000
2.801199e+003,6.669617e+000
2.802163e+003,5.401367e+000
2.803127e+003,4.869385e+000
2.804091e+003,4.636108e+000
2.805056e+003,5.468201e+000
2.806020e+003,6.704346e+000
2.806984e+003,5.959900e+000
2.807948e+003,3.964722e+000
2.808913e+003,4.287781e+000
2.809877e+003,5.117554e+000
2.810841e+003,3.854736e+000
2.811805e+003,3.767578e+000
2.812770e+003,5.240356e+000
2.813734e+003,5.127258e+000
2.814698e+003,4.114868e+000
2.815662e+003,3.672607e+000
2.816626e+003,3.690369e+000
2.817591e+003,3.683472e+000
2.818555e+003,3.629272e+000
2.819519e+003,3.279358e+000
2.820483e+003,1.282593e+000
2.821448e+003,0.000000e+000
2.822412e+003,3.965027e+000
2.823376e+003,7.836243e+000
2.824340e+003,6.986145e+000
2.825304e+003,5.349365e+000
2.826269e+003,5.035095e+000
2.827233e+003,5.240479e+000
2.828197e+003,5.617554e+000
2.829161e+003,5.859253e+000
2.830125e+003,5.808777e+000
2.831090e+003,5.824402e+000
2.832054e+003,6.910095e+000
2.833018e+003,7.797424e+000
2.833982e+003,4.726501e+000
2.834947e+003,1.606018e+000
2.835911e+003,3.301636e+000
2.836875e+003,6.611633e+000
2.837839e+003,9.070374e+000
2.838804e+003,1.046375e+001
2.839768e+003,1.033008e+001
2.840732e+003,9.179138e+000
2.841696e+003,8.001038e+000
2.842661e+003,7.137695e+000
2.843625e+003,7.489136e+000
2.844589e+003,9.054077e+000
2.845553e+003,1.076422e+001
2.846518e+003,1.188629e+001
2.847482e+003,1.170251e+001
2.848446e+003,1.073456e+001
2.849410e+003,1.009613e+001
2.850375e+003,1.044482e+001
2.851339e+003,1.200952e+001
2.852303e+003,1.306476e+001
2.853267e+003,1.150690e+001
2.854231e+003,8.793884e+000
2.855196e+003,6.988831e+000
2.856160e+003,6.312378e+000
2.857124e+003,8.793518e+000
2.858088e+003,1.128119e+001
2.859053e+003,9.076172e+000
2.860017e+003,6.594421e+000
2.860981e+003,8.603333e+000
2.861945e+003,1.111835e+001
2.862910e+003,1.157452e+001
2.863874e+003,1.097052e+001
2.864838e+003,9.393921e+000
2.865802e+003,7.802551e+000
2.866767e+003,9.005798e+000
2.867731e+003,1.097388e+001
2.868695e+003,1.196906e+001
2.869659e+003,1.271063e+001
2.870624e+003,1.296320e+001
2.871588e+003,1.324982e+001
2.872552e+003,1.379504e+001
2.873516e+003,1.409113e+001
2.874480e+003,1.432275e+001
2.875445e+003,1.425787e+001
2.876409e+003,1.289801e+001
2.877373e+003,1.144617e+001
2.878337e+003,1.228760e+001
2.879302e+003,1.334033e+001
2.880266e+003,1.274951e+001
2.881230e+003,1.200647e+001
2.882194e+003,1.239935e+001
2.883158e+003,1.267999e+001
2.884123e+003,1.081580e+001
2.885087e+003,9.445068e+000
2.886051e+003,1.133667e+001
2.887015e+003,1.400555e+001
2.887979e+003,1.398187e+001
2.888944e+003,1.262976e+001
2.889908e+003,1.163361e+001
2.890872e+003,1.046338e+001
2.891836e+003,8.911804e+000
2.892801e+003,7.843567e+000
2.893765e+003,8.065491e+000
2.894729e+003,8.497925e+000
2.895693e+003,8.515686e+000
2.896658e+003,8.431458e+000
2.897622e+003,8.060486e+000
2.898586e+003,7.810303e+000
2.899550e+003,8.878479e+000
2.900515e+003,1.013989e+001
2.901479e+003,1.006134e+001
2.902443e+003,9.867249e+000
2.903407e+003,9.879517e+000
2.904372e+003,9.317749e+000
2.905336e+003,7.925110e+000
2.906300e+003,7.796448e+000
2.907264e+003,9.602905e+000
2.908229e+003,1.197827e+001
2.909193e+003,1.441010e+001
2.910157e+003,1.500305e+001
2.911121e+003,1.090131e+001
2.912085e+003,7.283630e+000
2.913050e+003,8.471802e+000
2.914014e+003,1.028217e+001
2.914978e+003,1.245068e+001
2.915942e+003,1.343005e+001
2.916907e+003,1.234991e+001
2.917871e+003,1.125989e+001
2.918835e+003,1.103815e+001
2.919799e+003,1.039215e+001
2.920764e+003,8.478943e+000
2.921728e+003,8.018982e+000
2.922692e+003,1.172412e+001
2.923656e+003,1.452808e+001
2.924621e+003,1.326093e+001
2.925585e+003,1.169000e+001
2.926549e+003,1.044354e+001
2.927513e+003,1.018677e+001
2.928478e+003,1.094458e+001
2.929442e+003,1.161523e+001
2.930406e+003,1.177533e+001
2.931370e+003,1.137891e+001
2.932334e+003,1.070325e+001
2.933299e+003,1.119446e+001
2.934263e+003,1.423364e+001
2.935227e+003,1.563623e+001
2.936191e+003,1.131274e+001
2.937156e+003,1.074573e+001
2.938120e+003,1.587457e+001
2.939084e+003,1.818323e+001
2.940048e+003,1.624103e+001
2.941012e+003,1.380566e+001
2.941977e+003,1.235895e+001
2.942941e+003,1.305334e+001
2.943905e+003,1.613586e+001
2.944869e+003,1.695203e+001
2.945833e+003,1.331818e+001
2.946798e+003,1.057422e+001
2.947762e+003,8.815125e+000
2.948726e+003,7.916565e+000
2.949690e+003,7.680664e+000
2.950655e+003,8.194092e+000
2.951619e+003,9.000244e+000
2.952583e+003,8.713318e+000
2.953547e+003,7.606140e+000
2.954512e+003,7.550171e+000
2.955476e+003,9.216248e+000
2.956440e+003,1.054584e+001
2.957404e+003,1.102130e+001
2.958369e+003,8.819458e+000
2.959333e+003,4.483948e+000
2.960297e+003,3.584717e+000
2.961261e+003,5.624146e+000
2.962226e+003,7.448364e+000
2.963190e+003,8.247681e+000
2.964154e+003,8.621338e+000
2.965118e+003,9.030701e+000
2.966083e+003,8.982361e+000
2.967047e+003,8.597046e+000
2.968011e+003,9.435547e+000
2.968975e+003,1.092828e+001
2.969939e+003,1.056396e+001
2.970904e+003,9.279114e+000
2.971868e+003,8.069458e+000
2.972832e+003,7.443542e+000
2.973796e+003,8.924805e+000
2.974761e+003,1.098108e+001
2.975725e+003,1.101855e+001
2.976689e+003,9.721863e+000
2.977653e+003,8.301941e+000
2.978618e+003,6.741394e+000
2.979582e+003,4.184448e+000
2.980546e+003,2.239502e+000
2.981510e+003,4.938965e+000
2.982475e+003,8.266602e+000
2.983439e+003,7.519592e+000
2.984403e+003,5.581360e+000
2.985367e+003,4.918396e+000
2.986332e+003,5.515625e+000
2.987296e+003,7.482422e+000
2.988260e+003,9.207092e+000
2.989224e+003,8.827942e+000
2.990188e+003,7.381775e+000
2.991153e+003,5.916199e+000
2.992117e+003,4.955505e+000
2.993081e+003,4.296265e+000
2.994045e+003,4.713623e+000
2.995010e+003,7.072876e+000
2.995974e+003,8.903748e+000
2.996938e+003,9.315979e+000
2.997902e+003,1.034619e+001
2.998866e+003,1.304333e+001
2.999831e+003,1.390442e+001
3.000795e+003,9.771606e+000
3.001759e+003,6.342651e+000
3.002723e+003,7.251709e+000
3.003688e+003,8.726746e+000
3.004652e+003,1.096320e+001
3.005616e+003,1.155139e+001
3.006580e+003,9.863220e+000
3.007544e+003,8.327209e+000
3.008509e+003,7.725586e+000
3.009473e+003,8.258667e+000
3.010437e+003,9.912109e+000
3.011401e+003,1.059814e+001
3.012366e+003,9.017090e+000
3.013330e+003,7.743713e+000
3.014294e+003,6.933777e+000
3.015258e+003,7.643250e+000
3.016223e+003,9.733276e+000
3.017187e+003,1.037915e+001
3.018151e+003,9.842346e+000
3.019115e+003,1.050983e+001
3.020080e+003,1.212756e+001
3.021044e+003,1.205835e+001
3.022008e+003,9.800964e+000
3.022972e+003,8.941528e+000
3.023937e+003,9.813477e+000
3.024901e+003,9.907776e+000
3.025865e+003,9.762878e+000
3.026829e+003,1.090295e+001
3.027793e+003,1.173718e+001
3.028758e+003,9.515320e+000
3.029722e+003,6.689270e+000
3.030686e+003,7.526306e+000
3.031650e+003,9.429688e+000
3.032615e+003,8.719238e+000
3.033579e+003,7.204407e+000
3.034543e+003,7.684814e+000
3.035507e+003,9.391052e+000
3.036472e+003,1.296741e+001
3.037436e+003,1.481232e+001
3.038400e+003,9.867310e+000
3.039364e+003,5.375305e+000
3.040329e+003,5.432556e+000
3.041293e+003,7.755188e+000
3.042257e+003,1.146136e+001
3.043221e+003,1.327472e+001
3.044186e+003,1.061853e+001
3.045150e+003,7.568970e+000
3.046114e+003,7.264282e+000
3.047078e+003,7.546143e+000
3.048042e+003,6.618408e+000
3.049007e+003,7.133606e+000
3.049971e+003,1.048572e+001
3.050935e+003,1.220605e+001
3.051899e+003,1.145923e+001
3.052864e+003,1.008215e+001
3.053828e+003,8.745117e+000
3.054792e+003,8.289246e+000
3.055756e+003,9.077271e+000
3.056720e+003,1.026080e+001
3.057685e+003,1.158215e+001
3.058649e+003,1.380493e+001
3.059613e+003,1.686090e+001
3.060577e+003,1.615637e+001
3.061542e+003,1.286365e+001
3.062506e+003,1.148712e+001
3.063470e+003,1.224207e+001
3.064434e+003,1.425183e+001
3.065398e+003,1.596887e+001
3.066363e+003,1.381671e+001
3.067327e+003,9.138367e+000
3.068291e+003,6.885803e+000
3.069255e+003,6.719055e+000
3.070220e+003,8.733582e+000
3.071184e+003,1.141675e+001
3.072148e+003,1.277087e+001
3.073112e+003,1.357013e+001
3.074077e+003,1.399353e+001
3.075041e+003,1.379266e+001
3.076005e+003,1.329858e+001
3.076969e+003,1.267004e+001
3.077934e+003,1.156366e+001
3.078898e+003,1.032922e+001
3.079862e+003,9.536987e+000
3.080826e+003,9.429260e+000
3.081791e+003,1.072400e+001
3.082755e+003,1.208887e+001
3.083719e+003,1.319531e+001
3.084683e+003,1.283301e+001
3.085647e+003,1.064764e+001
3.086612e+003,1.031628e+001
3.087576e+003,1.330084e+001
3.088540e+003,1.543665e+001
3.089504e+003,1.477252e+001
3.090469e+003,1.427441e+001
3.091433e+003,1.457550e+001
3.092397e+003,1.568549e+001
3.093361e+003,1.738458e+001
3.094326e+003,1.676526e+001
3.095290e+003,1.433179e+001
3.096254e+003,1.333588e+001
3.097218e+003,1.400897e+001
3.098183e+003,1.536987e+001
3.099147e+003,1.734857e+001
3.100111e+003,1.819946e+001
3.101075e+003,1.786658e+001
3.102040e+003,1.655927e+001
3.103004e+003,1.485071e+001
3.103968e+003,1.499835e+001
3.104932e+003,1.627264e+001
3.105896e+003,1.790009e+001
3.106861e+003,1.916998e+001
3.107825e+003,1.911365e+001
3.108789e+003,1.875555e+001
3.109753e+003,1.935986e+001
3.110718e+003,1.985577e+001
3.111682e+003,1.871692e+001
3.112646e+003,1.722430e+001
3.113610e+003,1.553809e+001
3.114574e+003,1.540948e+001
3.115539e+003,1.893048e+001
3.116503e+003,2.110992e+001
3.117467e+003,2.049176e+001
3.118431e+003,1.861096e+001
3.119396e+003,1.637274e+001
3.120360e+003,1.561176e+001
3.121324e+003,1.727563e+001
3.122288e+003,1.902185e+001
3.123252e+003,2.107190e+001
3.124217e+003,2.051801e+001
3.125181e+003,1.741595e+001
3.126145e+003,1.662415e+001
3.127109e+003,1.804260e+001
3.128074e+003,1.931543e+001
3.129038e+003,1.953906e+001
3.130002e+003,1.820227e+001
3.130966e+003,1.615906e+001
3.131931e+003,1.646277e+001
3.132895e+003,1.903436e+001
3.133859e+003,2.115930e+001
3.134823e+003,2.202692e+001
3.135788e+003,1.955060e+001
3.136752e+003,1.680133e+001
3.137716e+003,1.904352e+001
3.138680e+003,2.210718e+001
3.139645e+003,2.103564e+001
3.140609e+003,1.867267e+001
3.141573e+003,1.786993e+001
3.142537e+003,1.885382e+001
3.143501e+003,2.203943e+001
3.144466e+003,2.419263e+001
3.145430e+003,2.131976e+001
3.146394e+003,1.906787e+001
3.147358e+003,1.942871e+001
3.148323e+003,2.064825e+001
3.149287e+003,2.213159e+001
3.150251e+003,2.272900e+001
3.151215e+003,2.242517e+001
3.152180e+003,2.311993e+001
3.153144e+003,2.551361e+001
3.154108e+003,2.586780e+001
3.155072e+003,2.276648e+001
3.156037e+003,2.113593e+001
3.157001e+003,2.098260e+001
3.157965e+003,2.133771e+001
3.158929e+003,2.240515e+001
3.159894e+003,2.403058e+001
3.160858e+003,2.522186e+001
3.161822e+003,2.500439e+001
3.162786e+003,2.422644e+001
3.163750e+003,2.393024e+001
3.164715e+003,2.395148e+001
3.165679e+003,2.408789e+001
3.166643e+003,2.466235e+001
3.167607e+003,2.612866e+001
3.168572e+003,2.707800e+001
3.169536e+003,2.613464e+001
3.170500e+003,2.473346e+001
3.171464e+003,2.363245e+001
3.172428e+003,2.295905e+001
3.173393e+003,2.251398e+001
3.174357e+003,2.317535e+001
3.175321e+003,2.569257e+001
3.176285e+003,2.686633e+001
3.177250e+003,2.494403e+001
3.178214e+003,2.385773e+001
3.179178e+003,2.375500e+001
3.180142e+003,2.403821e+001
3.181106e+003,2.428461e+001
3.182071e+003,2.557935e+001
3.183035e+003,2.728723e+001
3.183999e+003,2.674304e+001
3.184963e+003,2.531024e+001
3.185928e+003,2.623254e+001
3.186892e+003,2.803717e+001
3.187856e+003,2.791370e+001
3.188820e+003,2.691071e+001
3.189785e+003,2.580151e+001
3.190749e+003,2.517114e+001
3.191713e+003,2.592865e+001
3.192677e+003,2.703717e+001
3.193642e+003,2.809515e+001
3.194606e+003,2.927570e+001
3.195570e+003,3.060931e+001
3.196534e+003,3.090222e+001
3.197499e+003,2.907587e+001
3.198463e+003,2.688782e+001
3.199427e+003,2.426489e+001
3.200391e+003,2.377277e+001
3.201355e+003,2.551514e+001
3.202320e+003,2.654980e+001
3.203284e+003,2.697070e+001
3.204248e+003,2.869586e+001
3.205212e+003,3.136267e+001
3.206177e+003,3.317596e+001
3.207141e+003,3.408221e+001
3.208105e+003,3.445715e+001
3.209069e+003,3.450604e+001
3.210034e+003,3.358826e+001
3.210998e+003,3.206976e+001
3.211962e+003,3.134467e+001
3.212926e+003,3.081732e+001
3.213891e+003,2.928760e+001
3.214855e+003,2.849597e+001
3.215819e+003,2.932202e+001
3.216783e+003,2.976111e+001
3.217748e+003,2.848627e+001
3.218712e+003,2.836780e+001
3.219676e+003,3.207281e+001
3.220640e+003,3.473871e+001
3.221604e+003,3.589215e+001
3.222569e+003,3.508905e+001
3.223533e+003,3.286090e+001
3.224497e+003,3.220227e+001
3.225461e+003,3.270465e+001
3.226426e+003,3.174927e+001
3.227390e+003,2.983527e+001
3.228354e+003,3.057977e+001
3.229318e+003,3.293677e+001
3.230282e+003,3.312598e+001
3.231247e+003,3.172046e+001
3.232211e+003,2.955682e+001
3.233175e+003,2.852600e+001
3.234139e+003,3.043188e+001
3.235104e+003,3.294110e+001
3.236068e+003,3.508612e+001
3.237032e+003,3.555090e+001
3.237996e+003,3.369781e+001
3.238960e+003,3.247540e+001
3.239925e+003,3.415515e+001
3.240889e+003,3.501001e+001
3.241853e+003,3.233948e+001
3.242817e+003,3.098907e+001
3.243782e+003,3.114215e+001
3.244746e+003,3.306964e+001
3.245710e+003,3.608746e+001
3.246674e+003,3.679327e+001
3.247639e+003,3.519489e+001
3.248603e+003,3.418158e+001
3.249567e+003,3.435913e+001
3.250531e+003,3.492352e+001
3.251496e+003,3.543158e+001
3.252460e+003,3.570923e+001
3.253424e+003,3.573816e+001
3.254388e+003,3.600745e+001
3.255353e+003,3.652527e+001
3.256317e+003,3.599060e+001
3.257281e+003,3.593597e+001
3.258245e+003,3.750391e+001
3.259209e+003,3.785217e+001
3.260174e+003,3.513354e+001
3.261138e+003,3.321661e+001
3.262102e+003,3.491766e+001
3.263066e+003,3.484375e+001
3.264031e+003,3.256445e+001
3.264995e+003,3.266571e+001
3.265959e+003,3.475128e+001
3.266923e+003,3.707385e+001
3.267888e+003,3.907196e+001
3.268852e+003,3.937793e+001
3.269816e+003,3.879059e+001
3.270780e+003,3.962000e+001
3.271745e+003,4.056989e+001
3.272709e+003,3.882806e+001
3.273673e+003,3.655829e+001
3.274637e+003,3.493842e+001
3.275602e+003,3.509082e+001
3.276566e+003,3.832306e+001
3.277530e+003,4.007977e+001
3.278494e+003,3.920282e+001
3.279458e+003,3.917218e+001
3.280423e+003,4.128467e+001
3.281387e+003,4.219073e+001
3.282351e+003,4.018555e+001
3.283315e+003,4.028827e+001
3.284280e+003,4.282007e+001
3.285244e+003,4.379547e+001
3.286208e+003,4.366547e+001
3.287172e+003,4.403528e+001
3.288136e+003,4.464734e+001
3.289101e+003,4.501300e+001
3.290065e+003,4.450720e+001
3.291029e+003,4.243927e+001
3.291993e+003,4.074817e+001
3.292958e+003,4.235614e+001
3.293922e+003,4.401117e+001
3.294886e+003,4.160962e+001
3.295850e+003,4.028448e+001
3.296814e+003,4.148676e+001
3.297779e+003,4.372913e+001
3.298743e+003,4.647687e+001
3.299707e+003,4.682544e+001
3.300671e+003,4.472455e+001
3.301636e+003,4.350330e+001
3.302600e+003,4.385187e+001
3.303564e+003,4.512335e+001
3.304528e+003,4.718842e+001
3.305493e+003,4.726178e+001
3.306457e+003,4.588965e+001
3.307421e+003,4.311267e+001
3.308385e+003,4.119885e+001
3.309350e+003,4.328094e+001
3.310314e+003,4.514185e+001
3.311278e+003,4.417712e+001
3.312242e+003,4.338068e+001
3.313207e+003,4.562518e+001
3.314171e+003,4.711584e+001
3.315135e+003,4.242151e+001
3.316099e+003,4.145203e+001
3.317063e+003,4.528931e+001
3.318028e+003,4.596844e+001
3.318992e+003,4.436938e+001
3.319956e+003,4.525342e+001
3.320920e+003,4.768134e+001
3.321885e+003,4.780743e+001
3.322849e+003,4.721283e+001
3.323813e+003,4.933209e+001
3.324777e+003,5.193585e+001
3.325742e+003,5.040839e+001
3.326706e+003,4.876447e+001
3.327670e+003,5.158844e+001
3.328634e+003,5.325177e+001
3.329599e+003,5.145740e+001
3.330563e+003,5.057739e+001
3.331527e+003,5.162024e+001
3.332491e+003,5.145270e+001
3.333456e+003,4.913892e+001
3.334420e+003,4.958942e+001
3.335384e+003,5.456140e+001
3.336348e+003,5.625244e+001
3.337313e+003,5.515436e+001
3.338277e+003,5.595959e+001
3.339241e+003,5.679077e+001
3.340205e+003,5.479639e+001
3.341169e+003,5.251630e+001
3.342134e+003,5.175024e+001
3.343098e+003,5.148413e+001
3.344062e+003,5.118652e+001
3.345026e+003,5.153180e+001
3.345990e+003,5.304285e+001
3.346955e+003,5.449579e+001
3.347919e+003,5.537726e+001
3.348883e+003,5.523340e+001
3.349847e+003,5.470337e+001
3.350812e+003,5.455389e+001
3.351776e+003,5.472754e+001
3.352740e+003,5.482880e+001
3.353704e+003,5.491333e+001
3.354668e+003,5.581189e+001
3.355633e+003,5.720410e+001
3.356597e+003,5.799976e+001
3.357561e+003,5.795642e+001
3.358525e+003,5.663440e+001
3.359490e+003,5.554596e+001
3.360454e+003,5.574963e+001
3.361418e+003,5.608350e+001
3.362382e+003,5.597009e+001
3.363347e+003,5.661548e+001
3.364311e+003,5.814642e+001
3.365275e+003,5.808691e+001
3.366239e+003,5.582642e+001
3.367204e+003,5.525702e+001
3.368168e+003,5.646246e+001
3.369132e+003,5.816412e+001
3.370096e+003,5.911713e+001
3.371061e+003,5.588477e+001
3.372025e+003,5.294098e+001
3.372989e+003,5.518060e+001
3.373953e+003,5.795258e+001
3.374917e+003,5.755426e+001
3.375882e+003,5.723999e+001
3.376846e+003,5.979291e+001
3.377810e+003,6.072888e+001
3.378774e+003,5.846088e+001
3.379739e+003,5.734174e+001
3.380703e+003,5.755865e+001
3.381667e+003,5.761945e+001
3.382631e+003,5.783148e+001
3.383596e+003,6.026685e+001
3.384560e+003,6.330463e+001
3.385524e+003,6.300311e+001
3.386488e+003,6.094183e+001
3.387453e+003,6.103784e+001
3.388417e+003,6.161218e+001
3.389381e+003,6.108624e+001
3.390345e+003,6.043787e+001
3.391310e+003,5.945789e+001
3.392274e+003,5.865851e+001
3.393238e+003,5.871002e+001
3.394202e+003,6.084106e+001
3.395167e+003,6.438867e+001
3.396131e+003,6.494257e+001
3.397095e+003,6.257050e+001
3.398059e+003,6.071277e+001
3.399023e+003,6.001965e+001
3.399988e+003,6.025317e+001
3.400952e+003,6.131519e+001
3.401916e+003,6.436627e+001
3.402880e+003,6.588580e+001
3.403844e+003,6.423260e+001
3.404809e+003,6.303699e+001
3.405773e+003,6.414246e+001
3.406737e+003,6.391681e+001
3.407701e+003,6.024487e+001
3.408666e+003,5.909998e+001
3.409630e+003,6.048480e+001
3.410594e+003,6.318726e+001
3.411558e+003,6.554541e+001
3.412522e+003,6.373846e+001
3.413487e+003,6.111304e+001
3.414451e+003,6.229034e+001
3.415415e+003,6.456885e+001
3.416379e+003,6.526837e+001
3.417344e+003,6.518658e+001
3.418308e+003,6.514807e+001
3.419272e+003,6.467163e+001
3.420236e+003,6.315643e+001
3.421201e+003,6.285034e+001
3.422165e+003,6.394769e+001
3.423129e+003,6.520093e+001
3.424093e+003,6.587903e+001
3.425058e+003,6.445435e+001
3.426022e+003,6.201410e+001
3.426986e+003,6.134399e+001
3.427950e+003,6.200610e+001
3.428915e+003,6.407391e+001
3.429879e+003,6.567926e+001
3.430843e+003,6.309967e+001
3.431807e+003,6.214282e+001
3.432771e+003,6.448956e+001
3.433736e+003,6.665521e+001
3.434700e+003,6.757507e+001
3.435664e+003,6.700293e+001
3.436628e+003,6.566760e+001
3.437593e+003,6.580438e+001
3.438557e+003,6.676477e+001
3.439521e+003,6.748883e+001
3.440485e+003,6.760419e+001
3.441450e+003,6.593439e+001
3.442414e+003,6.423254e+001
3.443378e+003,6.271991e+001
3.444342e+003,6.223389e+001
3.445307e+003,6.390503e+001
3.446271e+003,6.602997e+001
3.447235e+003,6.695056e+001
3.448199e+003,6.675262e+001
3.449164e+003,6.534607e+001
3.450128e+003,6.433228e+001
3.451092e+003,6.437665e+001
3.452056e+003,6.555280e+001
3.453021e+003,6.634662e+001
3.453985e+003,6.486462e+001
3.454949e+003,6.408954e+001
3.455913e+003,6.596045e+001
3.456877e+003,6.715955e+001
3.457842e+003,6.534650e+001
3.458806e+003,6.430438e+001
3.459770e+003,6.695038e+001
3.460734e+003,6.803027e+001
3.461698e+003,6.704395e+001
3.462663e+003,6.573230e+001
3.463627e+003,6.519971e+001
3.464591e+003,6.673987e+001
3.465555e+003,6.881714e+001
3.466520e+003,6.938184e+001
3.467484e+003,6.920258e+001
3.468448e+003,6.965521e+001
3.469412e+003,6.940942e+001
3.470376e+003,6.560492e+001
3.471341e+003,6.411615e+001
3.472305e+003,6.563928e+001
3.473269e+003,6.715399e+001
3.474233e+003,6.812805e+001
3.475198e+003,6.863220e+001
3.476162e+003,6.876593e+001
3.477126e+003,6.736450e+001
3.478090e+003,6.528363e+001
3.479055e+003,6.558917e+001
3.480019e+003,6.626465e+001
3.480983e+003,6.411890e+001
3.481947e+003,6.402197e+001
3.482912e+003,6.786646e+001
3.483876e+003,6.987262e+001
3.484840e+003,6.901459e+001
3.485804e+003,6.857123e+001
3.486769e+003,6.951898e+001
3.487733e+003,6.975092e+001
3.488697e+003,6.909705e+001
3.489661e+003,6.725189e+001
3.490625e+003,6.505127e+001
3.491590e+003,6.605334e+001
3.492554e+003,6.734479e+001
3.493518e+003,6.643262e+001
3.494482e+003,6.639484e+001
3.495447e+003,6.755225e+001
3.496411e+003,6.855627e+001
3.497375e+003,6.915308e+001
3.498339e+003,6.892804e+001
3.499304e+003,6.817889e+001
3.500268e+003,6.825342e+001
