9.941663e+001,0.000000e+000
1.003809e+002,3.451144e+002
1.013451e+002,3.436331e+002
1.023093e+002,3.414859e+002
1.032736e+002,3.421451e+002
1.042378e+002,3.470566e+002
1.052020e+002,3.515217e+002
1.061663e+002,3.534919e+002
1.071305e+002,3.518756e+002
1.080947e+002,3.472285e+002
1.090590e+002,3.408567e+002
1.100232e+002,3.346719e+002
1.109874e+002,3.298358e+002
1.119517e+002,3.270363e+002
1.129159e+002,3.256592e+002
1.138801e+002,3.251478e+002
1.148444e+002,3.253437e+002
1.158086e+002,3.259897e+002
1.167728e+002,3.265021e+002
1.177371e+002,3.270759e+002
1.187013e+002,3.274217e+002
1.196655e+002,3.273123e+002
1.206298e+002,3.266711e+002
1.215940e+002,3.263215e+002
1.225582e+002,3.264490e+002
1.235225e+002,3.261316e+002
1.244867e+002,3.252738e+002
1.254509e+002,3.241708e+002
1.264152e+002,3.232516e+002
1.273794e+002,3.216998e+002
1.283436e+002,3.195961e+002
1.293079e+002,3.170775e+002
1.302721e+002,3.143494e+002
1.312363e+002,3.116793e+002
1.322006e+002,3.092183e+002
1.331648e+002,3.070246e+002
1.341290e+002,3.051719e+002
1.350933e+002,3.037878e+002
1.360575e+002,3.028789e+002
1.370217e+002,3.023187e+002
1.379860e+002,3.022238e+002
1.389502e+002,3.026405e+002
1.399144e+002,3.032505e+002
1.408787e+002,3.050792e+002
1.418429e+002,3.055328e+002
1.428071e+002,3.030758e+002
1.437714e+002,2.970163e+002
1.447356e+002,2.922860e+002
1.456998e+002,2.907300e+002
1.466641e+002,2.907612e+002
1.476283e+002,2.916686e+002
1.485925e+002,2.930717e+002
1.495568e+002,2.944849e+002
1.505210e+002,2.955829e+002
1.514852e+002,2.962382e+002
1.524495e+002,2.961769e+002
1.534137e+002,2.948767e+002
1.543779e+002,2.922471e+002
1.553422e+002,2.901257e+002
1.563064e+002,2.888393e+002
1.572706e+002,2.881259e+002
1.582349e+002,2.866459e+002
1.591991e+002,2.826772e+002
1.601633e+002,2.791474e+002
1.611276e+002,2.768070e+002
1.620918e+002,2.758492e+002
1.630560e+002,2.754066e+002
1.640203e+002,2.751404e+002
1.649845e+002,2.750116e+002
1.659487e+002,2.752723e+002
1.669130e+002,2.761024e+002
1.678772e+002,2.769556e+002
1.688414e+002,2.762166e+002
1.698057e+002,2.743893e+002
1.707699e+002,2.723705e+002
1.717341e+002,2.712284e+002
1.726984e+002,2.717165e+002
1.736626e+002,2.729139e+002
1.746268e+002,2.751216e+002
1.755911e+002,2.773078e+002
1.765553e+002,2.776015e+002
1.775195e+002,2.732974e+002
1.784838e+002,2.692307e+002
1.794480e+002,2.659576e+002
1.804122e+002,2.638702e+002
1.813765e+002,2.632059e+002
1.823407e+002,2.655144e+002
1.833049e+002,2.672313e+002
1.842692e+002,2.670976e+002
1.852334e+002,2.649655e+002
1.861976e+002,2.620115e+002
1.871619e+002,2.595937e+002
1.881261e+002,2.575753e+002
1.890903e+002,2.566223e+002
1.900546e+002,2.571871e+002
1.910188e+002,2.594064e+002
1.919830e+002,2.594680e+002
1.929473e+002,2.578477e+002
1.939115e+002,2.560834e+002
1.948757e+002,2.549464e+002
1.958400e+002,2.531982e+002
1.968042e+002,2.518520e+002
1.977684e+002,2.519547e+002
1.987327e+002,2.524775e+002
1.996969e+002,2.524537e+002
2.006611e+002,2.518498e+002
2.016254e+002,2.515394e+002
2.025896e+002,2.506790e+002
2.035538e+002,2.494026e+002
2.045181e+002,2.482052e+002
2.054823e+002,2.484413e+002
2.064465e+002,2.492146e+002
2.074108e+002,2.491345e+002
2.083750e+002,2.482628e+002
2.093392e+002,2.471414e+002
2.103035e+002,2.470667e+002
2.112677e+002,2.479572e+002
2.122319e+002,2.488610e+002
2.131962e+002,2.493217e+002
2.141604e+002,2.490717e+002
2.151246e+002,2.480900e+002
2.160889e+002,2.467863e+002
2.170531e+002,2.459277e+002
2.180173e+002,2.457496e+002
2.189816e+002,2.461424e+002
2.199458e+002,2.456852e+002
2.209100e+002,2.434263e+002
2.218743e+002,2.409067e+002
2.228385e+002,2.393372e+002
2.238027e+002,2.396750e+002
2.247670e+002,2.414565e+002
2.257312e+002,2.427374e+002
2.266954e+002,2.435058e+002
2.276597e+002,2.435764e+002
2.286239e+002,2.427148e+002
2.295881e+002,2.405916e+002
2.305524e+002,2.402664e+002
2.315166e+002,2.419246e+002
2.324808e+002,2.441697e+002
2.334451e+002,2.447935e+002
2.344093e+002,2.414623e+002
2.353735e+002,2.389780e+002
2.363378e+002,2.394682e+002
2.373020e+002,2.422406e+002
2.382662e+002,2.451421e+002
2.392305e+002,2.451475e+002
2.401947e+002,2.441782e+002
2.411589e+002,2.435313e+002
2.421232e+002,2.435020e+002
2.430874e+002,2.439000e+002
2.440516e+002,2.442679e+002
2.450159e+002,2.445265e+002
2.459801e+002,2.442233e+002
2.469443e+002,2.431638e+002
2.479086e+002,2.414255e+002
2.488728e+002,2.405470e+002
2.498370e+002,2.393895e+002
2.508013e+002,2.386041e+002
2.517655e+002,2.390333e+002
2.527297e+002,2.412441e+002
2.536940e+002,2.425604e+002
2.546582e+002,2.427712e+002
2.556224e+002,2.427907e+002
2.565867e+002,2.422760e+002
2.575509e+002,2.406254e+002
2.585151e+002,2.389783e+002
2.594794e+002,2.404417e+002
2.604436e+002,2.435540e+002
2.614078e+002,2.462766e+002
2.623721e+002,2.465709e+002
2.633363e+002,2.441768e+002
2.643005e+002,2.430292e+002
2.652648e+002,2.437560e+002
2.662290e+002,2.455491e+002
2.671932e+002,2.471927e+002
2.681575e+002,2.478298e+002
2.691217e+002,2.482874e+002
2.700859e+002,2.489007e+002
2.710502e+002,2.495958e+002
2.720144e+002,2.501966e+002
2.729786e+002,2.504899e+002
2.739429e+002,2.513100e+002
2.749071e+002,2.532213e+002
2.758713e+002,2.554257e+002
2.768356e+002,2.565768e+002
2.777998e+002,2.543021e+002
2.787640e+002,2.504022e+002
2.797283e+002,2.489500e+002
2.806925e+002,2.506912e+002
2.816567e+002,2.546719e+002
2.826210e+002,2.569333e+002
2.835852e+002,2.556274e+002
2.845494e+002,2.550807e+002
2.855137e+002,2.559724e+002
2.864779e+002,2.577378e+002
2.874421e+002,2.580423e+002
2.884064e+002,2.565855e+002
2.893706e+002,2.552413e+002
2.903348e+002,2.544746e+002
2.912991e+002,2.542943e+002
2.922633e+002,2.541589e+002
2.932275e+002,2.523947e+002
2.941918e+002,2.509403e+002
2.951560e+002,2.514562e+002
2.961202e+002,2.542437e+002
2.970845e+002,2.581743e+002
2.980487e+002,2.589282e+002
2.990129e+002,2.576779e+002
2.999772e+002,2.562023e+002
3.009414e+002,2.554304e+002
3.019056e+002,2.555678e+002
3.028699e+002,2.562334e+002
3.038341e+002,2.567373e+002
3.047983e+002,2.567259e+002
3.057626e+002,2.560266e+002
3.067268e+002,2.547521e+002
3.076910e+002,2.546019e+002
3.086553e+002,2.557934e+002
3.096195e+002,2.570067e+002
3.105837e+002,2.580295e+002
3.115480e+002,2.589979e+002
3.125122e+002,2.596786e+002
3.134764e+002,2.589995e+002
3.144407e+002,2.579526e+002
3.154049e+002,2.573836e+002
3.163691e+002,2.577603e+002
3.173334e+002,2.583994e+002
3.182976e+002,2.587969e+002
3.192618e+002,2.591754e+002
3.202261e+002,2.597013e+002
3.211903e+002,2.608174e+002
3.221545e+002,2.635980e+002
3.231188e+002,2.651046e+002
3.240830e+002,2.638733e+002
3.250472e+002,2.620974e+002
3.260115e+002,2.617360e+002
3.269757e+002,2.640778e+002
3.279399e+002,2.662830e+002
3.289042e+002,2.664728e+002
3.298684e+002,2.658370e+002
3.308326e+002,2.658152e+002
3.317969e+002,2.678496e+002
3.327611e+002,2.713523e+002
3.337253e+002,2.725199e+002
3.346896e+002,2.712487e+002
3.356538e+002,2.691001e+002
3.366180e+002,2.681700e+002
3.375823e+002,2.689050e+002
3.385465e+002,2.700563e+002
3.395107e+002,2.730861e+002
3.404750e+002,2.764803e+002
3.414392e+002,2.780451e+002
3.424034e+002,2.756940e+002
3.433677e+002,2.734464e+002
3.443319e+002,2.723909e+002
3.452961e+002,2.720619e+002
3.462604e+002,2.719147e+002
3.472246e+002,2.716337e+002
3.481888e+002,2.721359e+002
3.491531e+002,2.745911e+002
3.501173e+002,2.782436e+002
3.510815e+002,2.812598e+002
3.520458e+002,2.809807e+002
3.530100e+002,2.758027e+002
3.539742e+002,2.729791e+002
3.549385e+002,2.739058e+002
3.559027e+002,2.768920e+002
3.568669e+002,2.789599e+002
3.578312e+002,2.797678e+002
3.587954e+002,2.812919e+002
3.597596e+002,2.826467e+002
3.607239e+002,2.833588e+002
3.616881e+002,2.832751e+002
3.626523e+002,2.828903e+002
3.636166e+002,2.825919e+002
3.645808e+002,2.825280e+002
3.655450e+002,2.826577e+002
3.665093e+002,2.827963e+002
3.674735e+002,2.826092e+002
3.684377e+002,2.818615e+002
3.694020e+002,2.808101e+002
3.703662e+002,2.795361e+002
3.713304e+002,2.786447e+002
3.722947e+002,2.790876e+002
3.732589e+002,2.818929e+002
3.742231e+002,2.833301e+002
3.751874e+002,2.829467e+002
3.761516e+002,2.819711e+002
3.771158e+002,2.820303e+002
3.780801e+002,2.840696e+002
3.790443e+002,2.857301e+002
3.800085e+002,2.863602e+002
3.809728e+002,2.861776e+002
3.819370e+002,2.853995e+002
3.829012e+002,2.839899e+002
3.838655e+002,2.831293e+002
3.848297e+002,2.841526e+002
3.857939e+002,2.861871e+002
3.867582e+002,2.876961e+002
3.877224e+002,2.869319e+002
3.886866e+002,2.842086e+002
3.896509e+002,2.834542e+002
3.906151e+002,2.846794e+002
3.915793e+002,2.867188e+002
3.925436e+002,2.882064e+002
3.935078e+002,2.886714e+002
3.944720e+002,2.880046e+002
3.954363e+002,2.863613e+002
3.964005e+002,2.853412e+002
3.973647e+002,2.866348e+002
3.983290e+002,2.916013e+002
3.992932e+002,2.950201e+002
4.002574e+002,2.925971e+002
4.012217e+002,2.872443e+002
4.021859e+002,2.827368e+002
4.031501e+002,2.826349e+002
4.041144e+002,2.867256e+002
4.050786e+002,2.894782e+002
4.060428e+002,2.908936e+002
4.070071e+002,2.914891e+002
4.079713e+002,2.914300e+002
4.089355e+002,2.895094e+002
4.098998e+002,2.885588e+002
4.108640e+002,2.897014e+002
4.118282e+002,2.913024e+002
4.127925e+002,2.920204e+002
4.137567e+002,2.912427e+002
4.147209e+002,2.900582e+002
4.156852e+002,2.892603e+002
4.166494e+002,2.887361e+002
4.176136e+002,2.886344e+002
4.185779e+002,2.892515e+002
4.195421e+002,2.911814e+002
4.205063e+002,2.935927e+002
4.214706e+002,2.953663e+002
4.224348e+002,2.963960e+002
4.233990e+002,2.967684e+002
4.243633e+002,2.966373e+002
4.253275e+002,2.964288e+002
4.262917e+002,2.979039e+002
4.272560e+002,2.996932e+002
4.282202e+002,3.006520e+002
4.291844e+002,3.002053e+002
4.301487e+002,2.999149e+002
4.311129e+002,3.000043e+002
4.320771e+002,3.003564e+002
4.330414e+002,3.013056e+002
4.340056e+002,3.027783e+002
4.349698e+002,3.038851e+002
4.359341e+002,3.028047e+002
4.368983e+002,3.014417e+002
4.378625e+002,3.012180e+002
4.388268e+002,3.025080e+002
4.397910e+002,3.047528e+002
4.407552e+002,3.062824e+002
4.417195e+002,3.066400e+002
4.426837e+002,3.060218e+002
4.436479e+002,3.042859e+002
4.446122e+002,3.020438e+002
4.455764e+002,3.013899e+002
4.465406e+002,3.043890e+002
4.475049e+002,3.072776e+002
4.484691e+002,3.088284e+002
4.494333e+002,3.092281e+002
4.503976e+002,3.096993e+002
4.513618e+002,3.119006e+002
4.523260e+002,3.132609e+002
4.532903e+002,3.118381e+002
4.542545e+002,3.082380e+002
4.552188e+002,3.041146e+002
4.561830e+002,3.018751e+002
4.571472e+002,3.022492e+002
4.581115e+002,3.026001e+002
4.590757e+002,3.025397e+002
4.600399e+002,3.025778e+002
4.610042e+002,3.035922e+002
4.619684e+002,3.054507e+002
4.629326e+002,3.072359e+002
4.638969e+002,3.099856e+002
4.648611e+002,3.123823e+002
4.658253e+002,3.129665e+002
4.667896e+002,3.108553e+002
4.677538e+002,3.085046e+002
4.687180e+002,3.076603e+002
4.696823e+002,3.077525e+002
4.706465e+002,3.079679e+002
4.716107e+002,3.075728e+002
4.725750e+002,3.065610e+002
4.735392e+002,3.054122e+002
4.745034e+002,3.041349e+002
4.754677e+002,3.030624e+002
4.764319e+002,3.025215e+002
4.773961e+002,3.027183e+002
4.783604e+002,3.033910e+002
4.793246e+002,3.042884e+002
4.802888e+002,3.052891e+002
4.812531e+002,3.068717e+002
4.822173e+002,3.090272e+002
4.831815e+002,3.097552e+002
4.841458e+002,3.076447e+002
4.851100e+002,3.049651e+002
4.860742e+002,3.022157e+002
4.870385e+002,2.996051e+002
4.880027e+002,2.970823e+002
4.889669e+002,2.942712e+002
4.899312e+002,2.923051e+002
4.908954e+002,2.923555e+002
4.918596e+002,2.940754e+002
4.928239e+002,2.963134e+002
4.937881e+002,2.973572e+002
4.947523e+002,2.972665e+002
4.957166e+002,2.961860e+002
4.966808e+002,2.939932e+002
4.976450e+002,2.919827e+002
4.986093e+002,2.917204e+002
4.995735e+002,2.930497e+002
5.005377e+002,2.938693e+002
5.015020e+002,2.947629e+002
5.024662e+002,2.949695e+002
5.034304e+002,2.936075e+002
5.043947e+002,2.901584e+002
5.053589e+002,2.868533e+002
5.063231e+002,2.851481e+002
5.072874e+002,2.846513e+002
5.082516e+002,2.854811e+002
5.092158e+002,2.877347e+002
5.101801e+002,2.912958e+002
5.111443e+002,2.932087e+002
5.121085e+002,2.930825e+002
5.130728e+002,2.928418e+002
5.140370e+002,2.935345e+002
5.150012e+002,2.952155e+002
5.159655e+002,2.964630e+002
5.169297e+002,2.971930e+002
5.178939e+002,2.978464e+002
5.188582e+002,2.981735e+002
5.198224e+002,2.984914e+002
5.207866e+002,2.997902e+002
5.217509e+002,3.040106e+002
5.227151e+002,3.081299e+002
5.236793e+002,3.090042e+002
5.246436e+002,3.072486e+002
5.256078e+002,3.054778e+002
5.265720e+002,3.075870e+002
5.275363e+002,3.144730e+002
5.285005e+002,3.211906e+002
5.294647e+002,3.279641e+002
5.304290e+002,3.340414e+002
5.313932e+002,3.381920e+002
5.323574e+002,3.387236e+002
5.333217e+002,3.411040e+002
5.342859e+002,3.472010e+002
5.352501e+002,3.533752e+002
5.362144e+002,3.568760e+002
5.371786e+002,3.569357e+002
5.381428e+002,3.570734e+002
5.391071e+002,3.588046e+002
5.400713e+002,3.618254e+002
5.410355e+002,3.669614e+002
5.419998e+002,3.739849e+002
5.429640e+002,3.810231e+002
5.439282e+002,3.827125e+002
5.448925e+002,3.805999e+002
5.458567e+002,3.807875e+002
5.468209e+002,3.850583e+002
5.477852e+002,3.919854e+002
5.487494e+002,3.971107e+002
5.497136e+002,3.988844e+002
5.506779e+002,3.993708e+002
5.516421e+002,3.984622e+002
5.526063e+002,3.970215e+002
5.535706e+002,3.961982e+002
5.545348e+002,3.968220e+002
5.554990e+002,3.983323e+002
5.564633e+002,4.001409e+002
5.574275e+002,4.016226e+002
5.583917e+002,4.021869e+002
5.593560e+002,4.015307e+002
5.603202e+002,4.000620e+002
5.612844e+002,3.985169e+002
5.622487e+002,3.966643e+002
5.632129e+002,3.953527e+002
5.641771e+002,3.954795e+002
5.651414e+002,3.971185e+002
5.661056e+002,3.965927e+002
5.670698e+002,3.918538e+002
5.680341e+002,3.885363e+002
5.689983e+002,3.886386e+002
5.699625e+002,3.907233e+002
5.709268e+002,3.907985e+002
5.718910e+002,3.861426e+002
5.728552e+002,3.800296e+002
5.738195e+002,3.738834e+002
5.747837e+002,3.683668e+002
5.757479e+002,3.638383e+002
5.767122e+002,3.603674e+002
5.776764e+002,3.576065e+002
5.786406e+002,3.551984e+002
5.796049e+002,3.531408e+002
5.805691e+002,3.520109e+002
5.815333e+002,3.530731e+002
5.824976e+002,3.577780e+002
5.834618e+002,3.587824e+002
5.844260e+002,3.533036e+002
5.853903e+002,3.476819e+002
5.863545e+002,3.441531e+002
5.873187e+002,3.424520e+002
5.882830e+002,3.401954e+002
5.892472e+002,3.370545e+002
5.902114e+002,3.341601e+002
5.911757e+002,3.315501e+002
5.921399e+002,3.294720e+002
5.931041e+002,3.281951e+002
5.940684e+002,3.278010e+002
5.950326e+002,3.267818e+002
5.959968e+002,3.241627e+002
5.969611e+002,3.206913e+002
5.979253e+002,3.172043e+002
5.988895e+002,3.143007e+002
5.998538e+002,3.120095e+002
6.008180e+002,3.098550e+002
6.017822e+002,3.074299e+002
6.027465e+002,3.049664e+002
6.037107e+002,3.030928e+002
6.046749e+002,3.020361e+002
6.056392e+002,3.006841e+002
6.066034e+002,2.966133e+002
6.075676e+002,2.918417e+002
6.085319e+002,2.873644e+002
6.094961e+002,2.835790e+002
6.104603e+002,2.805637e+002
6.114246e+002,2.784983e+002
6.123888e+002,2.770274e+002
6.133530e+002,2.750497e+002
6.143173e+002,2.728939e+002
6.152815e+002,2.707054e+002
6.162457e+002,2.684879e+002
6.172100e+002,2.661799e+002
6.181742e+002,2.644684e+002
6.191384e+002,2.628852e+002
6.201027e+002,2.610596e+002
6.210669e+002,2.590251e+002
6.220311e+002,2.568652e+002
6.229954e+002,2.542912e+002
6.239596e+002,2.499449e+002
6.249238e+002,2.451826e+002
6.258881e+002,2.411046e+002
6.268523e+002,2.381927e+002
6.278165e+002,2.365223e+002
6.287808e+002,2.360536e+002
6.297450e+002,2.363717e+002
6.307092e+002,2.348232e+002
6.316735e+002,2.306567e+002
6.326377e+002,2.255463e+002
6.336019e+002,2.218359e+002
6.345662e+002,2.206294e+002
6.355304e+002,2.189754e+002
6.364946e+002,2.151336e+002
6.374589e+002,2.120699e+002
6.384231e+002,2.122115e+002
6.393873e+002,2.154980e+002
6.403516e+002,2.179927e+002
6.413158e+002,2.149923e+002
6.422800e+002,2.104089e+002
6.432443e+002,2.073710e+002
6.442085e+002,2.060551e+002
6.451727e+002,2.048526e+002
6.461370e+002,2.012424e+002
6.471012e+002,1.949938e+002
6.480654e+002,1.912109e+002
6.490297e+002,1.908236e+002
6.499939e+002,1.914514e+002
6.509581e+002,1.909868e+002
6.519224e+002,1.891947e+002
6.528866e+002,1.862822e+002
6.538508e+002,1.802597e+002
6.548151e+002,1.746078e+002
6.557793e+002,1.712964e+002
6.567435e+002,1.703752e+002
6.577078e+002,1.701860e+002
6.586720e+002,1.697582e+002
6.596362e+002,1.687830e+002
6.606005e+002,1.672809e+002
6.615647e+002,1.656512e+002
6.625289e+002,1.641234e+002
6.634932e+002,1.625587e+002
6.644574e+002,1.601641e+002
6.654216e+002,1.576830e+002
6.663859e+002,1.556883e+002
6.673501e+002,1.532587e+002
6.683143e+002,1.497929e+002
6.692786e+002,1.457104e+002
6.702428e+002,1.433218e+002
6.712070e+002,1.439221e+002
6.721713e+002,1.442705e+002
6.731355e+002,1.429501e+002
6.740997e+002,1.403220e+002
6.750640e+002,1.377872e+002
6.760282e+002,1.368505e+002
6.769924e+002,1.365226e+002
6.779567e+002,1.350226e+002
6.789209e+002,1.327814e+002
6.798851e+002,1.304366e+002
6.808494e+002,1.282430e+002
6.818136e+002,1.258062e+002
6.827778e+002,1.237793e+002
6.837421e+002,1.242375e+002
6.847063e+002,1.238405e+002
6.856705e+002,1.203033e+002
6.866348e+002,1.147444e+002
6.875990e+002,1.114843e+002
6.885632e+002,1.127546e+002
6.895275e+002,1.129882e+002
6.904917e+002,1.110891e+002
6.914559e+002,1.087535e+002
6.924202e+002,1.076007e+002
6.933844e+002,1.081939e+002
6.943486e+002,1.092228e+002
6.953129e+002,1.083651e+002
6.962771e+002,1.059755e+002
6.972413e+002,1.031211e+002
6.982056e+002,1.005876e+002
6.991698e+002,9.881726e+001
7.001340e+002,9.798450e+001
7.010983e+002,9.885406e+001
7.020625e+002,9.868060e+001
7.030267e+002,9.603186e+001
7.039910e+002,9.251978e+001
7.049552e+002,9.061487e+001
7.059194e+002,9.176440e+001
7.068837e+002,9.255872e+001
7.078479e+002,8.993347e+001
7.088121e+002,8.680414e+001
7.097764e+002,8.522858e+001
7.107406e+002,8.552405e+001
7.117048e+002,8.639166e+001
7.126691e+002,8.620526e+001
7.136333e+002,8.514178e+001
7.145975e+002,8.353381e+001
7.155618e+002,8.132690e+001
7.165260e+002,7.936304e+001
7.174902e+002,7.875305e+001
7.184545e+002,7.994971e+001
7.194187e+002,8.046136e+001
7.203829e+002,8.073315e+001
7.213472e+002,8.028387e+001
7.223114e+002,7.836890e+001
7.232756e+002,7.522906e+001
7.242399e+002,7.239209e+001
7.252041e+002,7.086334e+001
7.261683e+002,7.002594e+001
7.271326e+002,6.965375e+001
7.280968e+002,6.985028e+001
7.290610e+002,7.069983e+001
7.300253e+002,7.209607e+001
7.309895e+002,7.344513e+001
7.319537e+002,7.292682e+001
7.329180e+002,7.069153e+001
7.338822e+002,6.836053e+001
7.348464e+002,6.680511e+001
7.358107e+002,6.624994e+001
7.367749e+002,6.649957e+001
7.377391e+002,6.773737e+001
7.387034e+002,6.885016e+001
7.396676e+002,6.902795e+001
7.406318e+002,6.885046e+001
7.415961e+002,6.946088e+001
7.425603e+002,7.161841e+001
7.435245e+002,7.392468e+001
7.444888e+002,7.347156e+001
7.454530e+002,7.190576e+001
7.464172e+002,7.165601e+001
7.473815e+002,7.348920e+001
7.483457e+002,7.620459e+001
7.493099e+002,7.694165e+001
7.502742e+002,7.418719e+001
7.512384e+002,7.285590e+001
7.522026e+002,7.394421e+001
7.531669e+002,7.580835e+001
7.541311e+002,7.694434e+001
7.550953e+002,7.710083e+001
7.560596e+002,7.741467e+001
7.570238e+002,7.849963e+001
7.579880e+002,7.957843e+001
7.589523e+002,8.032758e+001
7.599165e+002,8.080420e+001
7.608807e+002,8.131586e+001
7.618450e+002,8.219562e+001
7.628092e+002,8.335754e+001
7.637734e+002,8.398511e+001
7.647377e+002,8.406818e+001
7.657019e+002,8.440765e+001
7.666661e+002,8.554486e+001
7.676304e+002,8.730896e+001
7.685946e+002,8.859290e+001
7.695588e+002,9.028296e+001
7.705231e+002,9.139825e+001
7.714873e+002,9.121484e+001
7.724515e+002,9.021783e+001
7.734158e+002,8.903552e+001
7.743800e+002,8.766437e+001
7.753442e+002,8.698297e+001
7.763085e+002,8.882617e+001
7.772727e+002,9.176678e+001
7.782369e+002,9.376740e+001
7.792012e+002,9.389368e+001
7.801654e+002,9.280621e+001
7.811296e+002,9.263904e+001
7.820939e+002,9.447260e+001
7.830581e+002,9.466260e+001
7.840223e+002,9.192523e+001
7.849866e+002,8.902057e+001
7.859508e+002,8.862268e+001
7.869150e+002,9.074158e+001
7.878793e+002,9.201111e+001
7.888435e+002,9.172778e+001
7.898077e+002,9.106384e+001
7.907720e+002,9.052008e+001
7.917362e+002,9.040173e+001
7.927004e+002,9.080377e+001
7.936647e+002,9.157642e+001
7.946289e+002,9.198883e+001
7.955931e+002,9.157996e+001
7.965574e+002,9.035126e+001
7.975216e+002,8.812238e+001
7.984858e+002,8.487238e+001
7.994501e+002,8.149365e+001
8.004143e+002,8.086554e+001
8.013785e+002,8.588800e+001
8.023428e+002,8.888983e+001
8.033070e+002,8.872516e+001
8.042712e+002,8.675714e+001
8.052355e+002,8.423389e+001
8.061997e+002,8.128235e+001
8.071639e+002,7.874329e+001
8.081282e+002,7.806049e+001
8.090924e+002,7.788837e+001
8.100566e+002,7.713177e+001
8.110209e+002,7.587451e+001
8.119851e+002,7.506293e+001
8.129493e+002,7.576703e+001
8.139136e+002,7.734088e+001
8.148778e+002,7.653387e+001
8.158420e+002,7.325269e+001
8.168063e+002,6.977594e+001
8.177705e+002,6.723987e+001
8.187347e+002,6.561694e+001
8.196990e+002,6.493500e+001
8.206632e+002,6.639063e+001
8.216274e+002,6.671967e+001
8.225917e+002,6.556836e+001
8.235559e+002,6.383356e+001
8.245201e+002,6.201105e+001
8.254844e+002,5.995074e+001
8.264486e+002,5.761993e+001
8.274128e+002,5.574646e+001
8.283771e+002,5.438312e+001
8.293413e+002,5.301172e+001
8.303055e+002,5.138470e+001
8.312698e+002,5.005524e+001
8.322340e+002,5.025629e+001
8.331982e+002,5.292285e+001
8.341625e+002,5.337115e+001
8.351267e+002,5.091888e+001
8.360909e+002,4.858606e+001
8.370552e+002,4.770947e+001
8.380194e+002,4.779071e+001
8.389836e+002,4.724036e+001
8.399479e+002,4.545490e+001
8.409121e+002,4.387341e+001
8.418763e+002,4.312799e+001
8.428406e+002,4.257196e+001
8.438048e+002,4.142200e+001
8.447690e+002,3.944934e+001
8.457333e+002,3.738287e+001
8.466975e+002,3.678448e+001
8.476617e+002,3.783698e+001
8.486260e+002,3.895868e+001
8.495902e+002,3.959229e+001
8.505544e+002,3.953802e+001
8.515187e+002,3.874432e+001
8.524829e+002,3.724945e+001
8.534471e+002,3.600293e+001
8.544114e+002,3.590820e+001
8.553756e+002,3.585211e+001
8.563398e+002,3.509882e+001
8.573041e+002,3.383228e+001
8.582683e+002,3.261591e+001
8.592325e+002,3.171948e+001
8.601968e+002,3.128418e+001
8.611610e+002,3.215167e+001
8.621252e+002,3.380341e+001
8.630895e+002,3.468762e+001
8.640537e+002,3.417133e+001
8.650179e+002,3.288916e+001
8.659822e+002,3.215643e+001
8.669464e+002,3.124243e+001
8.679106e+002,3.050146e+001
8.688749e+002,3.024890e+001
8.698391e+002,2.961609e+001
8.708033e+002,2.814380e+001
8.717676e+002,2.642828e+001
8.727318e+002,2.615234e+001
8.736960e+002,2.883270e+001
8.746603e+002,3.152368e+001
8.756245e+002,3.141168e+001
8.765887e+002,2.910223e+001
8.775530e+002,2.684589e+001
8.785172e+002,2.666187e+001
8.794814e+002,2.855139e+001
8.804457e+002,3.012915e+001
8.814099e+002,3.076367e+001
8.823741e+002,3.164020e+001
8.833384e+002,3.318817e+001
8.843026e+002,3.441486e+001
8.852668e+002,3.406598e+001
8.862311e+002,3.206885e+001
8.871953e+002,3.009241e+001
8.881595e+002,2.886792e+001
8.891238e+002,2.822906e+001
8.900880e+002,2.785864e+001
8.910522e+002,2.758276e+001
8.920165e+002,2.739954e+001
8.929807e+002,2.738458e+001
8.939449e+002,2.739136e+001
8.949092e+002,2.677783e+001
8.958734e+002,2.568079e+001
8.968376e+002,2.539923e+001
8.978019e+002,2.681439e+001
8.987661e+002,2.906299e+001
8.997303e+002,2.960260e+001
9.006946e+002,2.701801e+001
9.016588e+002,2.592731e+001
9.026230e+002,2.854590e+001
9.035873e+002,3.178082e+001
9.045515e+002,3.319305e+001
9.055157e+002,3.268842e+001
9.064800e+002,3.223999e+001
9.074442e+002,3.320392e+001
9.084084e+002,3.491516e+001
9.093727e+002,3.659552e+001
9.103369e+002,3.813495e+001
9.113011e+002,3.940375e+001
9.122654e+002,4.032172e+001
9.132296e+002,4.097357e+001
9.141938e+002,4.176727e+001
9.151581e+002,4.341083e+001
9.161223e+002,4.480035e+001
9.170865e+002,4.564453e+001
9.180508e+002,4.664429e+001
9.190150e+002,4.827710e+001
9.199792e+002,5.033899e+001
9.209435e+002,5.197614e+001
9.219077e+002,5.219781e+001
9.228719e+002,5.212695e+001
9.238362e+002,5.346558e+001
9.248004e+002,5.596295e+001
9.257646e+002,5.822479e+001
9.267289e+002,5.912207e+001
9.276931e+002,5.910950e+001
9.286573e+002,6.058270e+001
9.296216e+002,6.384589e+001
9.305858e+002,6.576453e+001
9.315500e+002,6.560846e+001
9.325143e+002,6.497626e+001
9.334785e+002,6.560211e+001
9.344427e+002,6.766260e+001
9.354070e+002,6.942365e+001
9.363712e+002,6.875519e+001
9.373354e+002,6.876434e+001
9.382997e+002,7.157684e+001
9.392639e+002,7.610675e+001
9.402281e+002,8.008539e+001
9.411924e+002,8.205469e+001
9.421566e+002,8.289362e+001
9.431208e+002,8.494006e+001
9.440851e+002,8.770001e+001
9.450493e+002,8.961041e+001
9.460135e+002,9.087823e+001
9.469778e+002,9.171796e+001
9.479420e+002,9.189075e+001
9.489063e+002,9.102716e+001
9.498705e+002,9.062646e+001
9.508347e+002,9.083997e+001
9.517990e+002,9.151428e+001
9.527632e+002,9.300629e+001
9.537274e+002,9.470886e+001
9.546917e+002,9.588324e+001
9.556559e+002,9.624591e+001
9.566201e+002,9.598212e+001
9.575844e+002,9.468445e+001
9.585486e+002,9.276111e+001
9.595128e+002,9.143170e+001
9.604771e+002,9.125354e+001
9.614413e+002,9.178326e+001
9.624055e+002,9.215369e+001
9.633698e+002,9.205664e+001
9.643340e+002,9.282996e+001
9.652982e+002,9.453156e+001
9.662625e+002,9.555975e+001
9.672267e+002,9.652185e+001
9.681909e+002,9.796106e+001
9.691552e+002,9.971655e+001
9.701194e+002,1.010370e+002
9.710836e+002,1.013691e+002
9.720479e+002,9.994507e+001
9.730121e+002,9.808313e+001
9.739763e+002,9.761902e+001
9.749406e+002,9.917102e+001
9.759048e+002,1.020790e+002
9.768690e+002,1.053337e+002
9.778333e+002,1.085453e+002
9.787975e+002,1.118436e+002
9.797617e+002,1.148297e+002
9.807260e+002,1.172009e+002
9.816902e+002,1.197720e+002
9.826544e+002,1.225486e+002
9.836187e+002,1.248561e+002
9.845829e+002,1.263418e+002
9.855471e+002,1.282340e+002
9.865114e+002,1.319791e+002
9.874756e+002,1.350754e+002
9.884398e+002,1.359527e+002
9.894041e+002,1.352543e+002
9.903683e+002,1.343807e+002
9.913325e+002,1.341774e+002
9.922968e+002,1.341652e+002
9.932610e+002,1.329515e+002
9.942252e+002,1.303787e+002
9.951895e+002,1.288741e+002
9.961537e+002,1.282249e+002
9.971179e+002,1.280987e+002
9.980822e+002,1.288142e+002
9.990464e+002,1.305455e+002
1.000011e+003,1.320871e+002
1.000975e+003,1.320021e+002
1.001939e+003,1.315126e+002
1.002903e+003,1.319256e+002
1.003868e+003,1.324587e+002
1.004832e+003,1.319121e+002
1.005796e+003,1.302526e+002
1.006760e+003,1.290522e+002
1.007724e+003,1.304565e+002
1.008689e+003,1.343200e+002
1.009653e+003,1.371339e+002
1.010617e+003,1.380463e+002
1.011581e+003,1.385631e+002
1.012546e+003,1.402030e+002
1.013510e+003,1.428454e+002
1.014474e+003,1.446398e+002
1.015438e+003,1.445526e+002
1.016403e+003,1.452629e+002
1.017367e+003,1.478246e+002
1.018331e+003,1.503226e+002
1.019295e+003,1.511693e+002
1.020260e+003,1.508267e+002
1.021224e+003,1.513810e+002
1.022188e+003,1.547273e+002
1.023152e+003,1.600726e+002
1.024116e+003,1.636149e+002
1.025081e+003,1.652004e+002
1.026045e+003,1.665506e+002
1.027009e+003,1.681483e+002
1.027973e+003,1.699581e+002
1.028938e+003,1.718764e+002
1.029902e+003,1.738605e+002
1.030866e+003,1.770529e+002
1.031830e+003,1.835511e+002
1.032795e+003,1.895606e+002
1.033759e+003,1.928660e+002
1.034723e+003,1.940151e+002
1.035687e+003,1.944902e+002
1.036651e+003,1.953191e+002
1.037616e+003,1.967768e+002
1.038580e+003,1.988846e+002
1.039544e+003,2.011664e+002
1.040508e+003,2.037864e+002
1.041473e+003,2.072492e+002
1.042437e+003,2.117889e+002
1.043401e+003,2.181733e+002
1.044365e+003,2.260671e+002
1.045330e+003,2.314128e+002
1.046294e+003,2.310589e+002
1.047258e+003,2.308561e+002
1.048222e+003,2.334656e+002
1.049187e+003,2.369030e+002
1.050151e+003,2.389601e+002
1.051115e+003,2.394953e+002
1.052079e+003,2.405212e+002
1.053043e+003,2.441049e+002
1.054008e+003,2.499570e+002
1.054972e+003,2.556666e+002
1.055936e+003,2.600817e+002
1.056900e+003,2.627966e+002
1.057865e+003,2.639881e+002
1.058829e+003,2.649287e+002
1.059793e+003,2.671223e+002
1.060757e+003,2.706191e+002
1.061722e+003,2.760231e+002
1.062686e+003,2.844338e+002
1.063650e+003,2.917629e+002
1.064614e+003,2.955374e+002
1.065578e+003,2.973101e+002
1.066543e+003,3.004854e+002
1.067507e+003,3.069313e+002
1.068471e+003,3.142617e+002
1.069435e+003,3.172712e+002
1.070400e+003,3.171011e+002
1.071364e+003,3.201440e+002
1.072328e+003,3.270991e+002
1.073292e+003,3.336191e+002
1.074257e+003,3.363259e+002
1.075221e+003,3.361813e+002
1.076185e+003,3.372202e+002
1.077149e+003,3.391525e+002
1.078114e+003,3.425698e+002
1.079078e+003,3.484565e+002
1.080042e+003,3.549355e+002
1.081006e+003,3.605250e+002
1.081970e+003,3.646581e+002
1.082935e+003,3.676656e+002
1.083899e+003,3.701996e+002
1.084863e+003,3.728901e+002
1.085827e+003,3.758162e+002
1.086792e+003,3.780811e+002
1.087756e+003,3.791060e+002
1.088720e+003,3.789755e+002
1.089684e+003,3.787200e+002
1.090649e+003,3.793438e+002
1.091613e+003,3.810268e+002
1.092577e+003,3.837678e+002
1.093541e+003,3.886400e+002
1.094505e+003,3.909570e+002
1.095470e+003,3.885725e+002
1.096434e+003,3.849482e+002
1.097398e+003,3.836678e+002
1.098362e+003,3.852526e+002
1.099327e+003,3.872951e+002
1.100291e+003,3.877123e+002
1.101255e+003,3.866531e+002
1.102219e+003,3.842520e+002
1.103184e+003,3.800458e+002
1.104148e+003,3.752963e+002
1.105112e+003,3.711359e+002
1.106076e+003,3.676109e+002
1.107041e+003,3.641077e+002
1.108005e+003,3.604719e+002
1.108969e+003,3.570081e+002
1.109933e+003,3.525524e+002
1.110897e+003,3.478366e+002
1.111862e+003,3.440637e+002
1.112826e+003,3.410494e+002
1.113790e+003,3.382790e+002
1.114754e+003,3.354078e+002
1.115719e+003,3.322650e+002
1.116683e+003,3.285203e+002
1.117647e+003,3.236808e+002
1.118611e+003,3.177604e+002
1.119576e+003,3.116249e+002
1.120540e+003,3.061086e+002
1.121504e+003,3.002670e+002
1.122468e+003,2.941220e+002
1.123432e+003,2.895514e+002
1.124397e+003,2.875560e+002
1.125361e+003,2.836343e+002
1.126325e+003,2.761617e+002
1.127289e+003,2.697448e+002
1.128254e+003,2.660342e+002
1.129218e+003,2.636984e+002
1.130182e+003,2.608431e+002
1.131146e+003,2.567850e+002
1.132111e+003,2.523721e+002
1.133075e+003,2.488483e+002
1.134039e+003,2.460410e+002
1.135003e+003,2.414262e+002
1.135968e+003,2.340233e+002
1.136932e+003,2.268137e+002
1.137896e+003,2.219011e+002
1.138860e+003,2.185370e+002
1.139824e+003,2.145515e+002
1.140789e+003,2.096103e+002
1.141753e+003,2.058192e+002
1.142717e+003,2.040609e+002
1.143681e+003,2.014812e+002
1.144646e+003,1.975214e+002
1.145610e+003,1.925925e+002
1.146574e+003,1.869023e+002
1.147538e+003,1.807795e+002
1.148503e+003,1.750751e+002
1.149467e+003,1.708900e+002
1.150431e+003,1.678142e+002
1.151395e+003,1.646917e+002
1.152359e+003,1.613878e+002
1.153324e+003,1.588551e+002
1.154288e+003,1.584818e+002
1.155252e+003,1.586123e+002
1.156216e+003,1.554508e+002
1.157181e+003,1.479420e+002
1.158145e+003,1.424343e+002
1.159109e+003,1.453401e+002
1.160073e+003,1.480652e+002
1.161038e+003,1.442924e+002
1.162002e+003,1.364286e+002
1.162966e+003,1.297953e+002
1.163930e+003,1.270721e+002
1.164895e+003,1.264694e+002
1.165859e+003,1.248358e+002
1.166823e+003,1.225157e+002
1.167787e+003,1.198884e+002
1.168751e+003,1.152957e+002
1.169716e+003,1.108307e+002
1.170680e+003,1.070319e+002
1.171644e+003,1.038959e+002
1.172608e+003,1.020220e+002
1.173573e+003,1.019965e+002
1.174537e+003,1.025595e+002
1.175501e+003,1.020626e+002
1.176465e+003,1.003248e+002
1.177430e+003,9.780316e+001
1.178394e+003,9.518799e+001
1.179358e+003,9.357147e+001
1.180322e+003,9.306909e+001
1.181286e+003,9.216357e+001
1.182251e+003,8.871887e+001
1.183215e+003,8.266394e+001
1.184179e+003,7.850934e+001
1.185143e+003,7.790900e+001
1.186108e+003,7.761462e+001
1.187072e+003,7.720471e+001
1.188036e+003,7.583234e+001
1.189000e+003,7.224414e+001
1.189965e+003,6.707159e+001
1.190929e+003,6.342688e+001
1.191893e+003,6.354297e+001
1.192857e+003,6.461328e+001
1.193822e+003,6.233423e+001
1.194786e+003,5.836621e+001
1.195750e+003,5.610712e+001
1.196714e+003,5.628003e+001
1.197678e+003,5.616681e+001
1.198643e+003,5.249634e+001
1.199607e+003,4.572833e+001
1.200571e+003,4.180316e+001
1.201535e+003,4.346979e+001
1.202500e+003,4.452521e+001
1.203464e+003,4.232007e+001
1.204428e+003,3.920972e+001
1.205392e+003,3.687830e+001
1.206357e+003,3.533356e+001
1.207321e+003,3.392566e+001
1.208285e+003,3.242554e+001
1.209249e+003,3.107312e+001
1.210214e+003,3.000055e+001
1.211178e+003,2.958344e+001
1.212142e+003,3.006885e+001
1.213106e+003,3.132880e+001
1.214070e+003,3.195221e+001
1.215035e+003,3.082355e+001
1.215999e+003,2.831976e+001
1.216963e+003,2.552655e+001
1.217927e+003,2.265741e+001
1.218892e+003,2.055707e+001
1.219856e+003,1.987683e+001
1.220820e+003,1.989270e+001
1.221784e+003,2.093097e+001
1.222749e+003,2.226965e+001
1.223713e+003,2.249756e+001
1.224677e+003,2.112463e+001
1.225641e+003,1.927637e+001
1.226605e+003,1.862927e+001
1.227570e+003,1.911224e+001
1.228534e+003,1.873004e+001
1.229498e+003,1.784387e+001
1.230462e+003,1.677563e+001
1.231427e+003,1.425067e+001
1.232391e+003,1.173737e+001
1.233355e+003,1.137445e+001
1.234319e+003,1.318073e+001
1.235284e+003,1.504480e+001
1.236248e+003,1.615198e+001
1.237212e+003,1.647278e+001
1.238176e+003,1.516827e+001
1.239141e+003,1.318292e+001
1.240105e+003,1.202704e+001
1.241069e+003,1.191083e+001
1.242033e+003,1.186340e+001
1.242997e+003,1.098383e+001
1.243962e+003,9.564758e+000
1.244926e+003,9.049683e+000
1.245890e+003,1.012531e+001
1.246854e+003,1.121747e+001
1.247819e+003,1.243280e+001
1.248783e+003,1.317944e+001
1.249747e+003,1.288806e+001
1.250711e+003,1.223730e+001
1.251676e+003,1.236371e+001
1.252640e+003,1.321832e+001
1.253604e+003,1.299310e+001
1.254568e+003,1.007715e+001
1.255532e+003,6.130493e+000
1.256497e+003,4.114075e+000
1.257461e+003,3.799438e+000
1.258425e+003,5.303711e+000
1.259389e+003,9.455505e+000
1.260354e+003,1.362366e+001
1.261318e+003,1.456116e+001
1.262282e+003,1.260394e+001
1.263246e+003,1.128156e+001
1.264211e+003,1.151569e+001
1.265175e+003,1.138837e+001
1.266139e+003,1.042126e+001
1.267103e+003,8.985779e+000
1.268068e+003,6.640564e+000
1.269032e+003,3.721375e+000
1.269996e+003,1.231689e+000
1.270960e+003,0.000000e+000
1.271924e+003,1.759033e-001
1.272889e+003,1.619324e+000
1.273853e+003,4.371155e+000
1.274817e+003,5.972351e+000
1.275781e+003,4.405029e+000
1.276746e+003,2.964050e+000
1.277710e+003,4.347656e+000
1.278674e+003,6.726318e+000
1.279638e+003,7.068359e+000
1.280603e+003,5.345276e+000
1.281567e+003,4.784851e+000
1.282531e+003,7.083862e+000
1.283495e+003,9.539612e+000
1.284459e+003,8.872559e+000
1.285424e+003,6.795288e+000
1.286388e+003,6.127869e+000
1.287352e+003,7.395752e+000
1.288316e+003,9.029907e+000
1.289281e+003,9.931091e+000
1.290245e+003,1.042615e+001
1.291209e+003,1.097357e+001
1.292173e+003,1.117725e+001
1.293138e+003,1.046625e+001
1.294102e+003,8.311646e+000
1.295066e+003,6.647095e+000
1.296030e+003,6.498901e+000
1.296995e+003,7.041931e+000
1.297959e+003,7.057129e+000
1.298923e+003,6.464172e+000
1.299887e+003,6.445740e+000
1.300851e+003,7.872131e+000
1.301816e+003,9.258911e+000
1.302780e+003,7.195313e+000
1.303744e+003,2.531006e+000
1.304708e+003,1.314575e+000
1.305673e+003,5.635437e+000
1.306637e+003,1.077692e+001
1.307601e+003,1.392499e+001
1.308565e+003,1.466284e+001
1.309530e+003,1.253534e+001
1.310494e+003,7.718811e+000
1.311458e+003,4.710938e+000
1.312422e+003,6.845337e+000
1.313386e+003,9.417480e+000
1.314351e+003,8.232239e+000
1.315315e+003,5.057983e+000
1.316279e+003,3.090393e+000
1.317243e+003,3.370667e+000
1.318208e+003,5.148804e+000
1.319172e+003,7.732056e+000
1.320136e+003,1.075256e+001
1.321100e+003,1.205225e+001
1.322065e+003,1.119873e+001
1.323029e+003,1.078845e+001
1.323993e+003,9.711548e+000
1.324957e+003,9.615295e+000
1.325922e+003,1.196838e+001
1.326886e+003,1.459369e+001
1.327850e+003,1.502063e+001
1.328814e+003,1.323981e+001
1.329778e+003,1.085327e+001
1.330743e+003,8.458496e+000
1.331707e+003,6.593872e+000
1.332671e+003,7.329224e+000
1.333635e+003,1.000281e+001
1.334600e+003,1.236658e+001
1.335564e+003,1.473523e+001
1.336528e+003,1.553662e+001
1.337492e+003,1.277454e+001
1.338457e+003,8.059692e+000
1.339421e+003,5.469177e+000
1.340385e+003,5.677246e+000
1.341349e+003,6.904419e+000
1.342313e+003,8.556641e+000
1.343278e+003,9.919128e+000
1.344242e+003,1.135822e+001
1.345206e+003,1.221167e+001
1.346170e+003,1.079919e+001
1.347135e+003,7.167358e+000
1.348099e+003,4.111877e+000
1.349063e+003,4.379883e+000
1.350027e+003,7.259644e+000
1.350992e+003,9.287415e+000
1.351956e+003,9.811707e+000
1.352920e+003,1.025214e+001
1.353884e+003,1.176190e+001
1.354849e+003,1.258527e+001
1.355813e+003,1.118524e+001
1.356777e+003,9.423096e+000
1.357741e+003,9.727722e+000
1.358705e+003,1.204346e+001
1.359670e+003,1.413666e+001
1.360634e+003,1.447980e+001
1.361598e+003,1.324908e+001
1.362562e+003,1.071771e+001
1.363527e+003,7.735840e+000
1.364491e+003,7.058228e+000
1.365455e+003,9.156555e+000
1.366419e+003,1.030646e+001
1.367384e+003,8.115356e+000
1.368348e+003,4.571716e+000
1.369312e+003,3.138184e+000
1.370276e+003,4.449524e+000
1.371240e+003,6.138367e+000
1.372205e+003,5.965332e+000
1.373169e+003,6.118591e+000
1.374133e+003,1.028906e+001
1.375097e+003,1.499982e+001
1.376062e+003,1.547980e+001
1.377026e+003,1.192352e+001
1.377990e+003,8.562927e+000
1.378954e+003,8.487915e+000
1.379919e+003,1.073358e+001
1.380883e+003,1.235352e+001
1.381847e+003,1.247821e+001
1.382811e+003,1.319543e+001
1.383776e+003,1.548456e+001
1.384740e+003,1.629285e+001
1.385704e+003,1.551337e+001
1.386668e+003,1.435193e+001
1.387632e+003,1.254926e+001
1.388597e+003,1.068378e+001
1.389561e+003,1.050110e+001
1.390525e+003,1.274225e+001
1.391489e+003,1.558551e+001
1.392454e+003,1.640802e+001
1.393418e+003,1.516315e+001
1.394382e+003,1.407233e+001
1.395346e+003,1.316888e+001
1.396311e+003,1.233807e+001
1.397275e+003,1.266315e+001
1.398239e+003,1.379504e+001
1.399203e+003,1.457123e+001
1.400167e+003,1.468634e+001
1.401132e+003,1.454089e+001
1.402096e+003,1.421887e+001
1.403060e+003,1.408826e+001
1.404024e+003,1.561133e+001
1.404989e+003,1.803931e+001
1.405953e+003,1.841742e+001
1.406917e+003,1.657062e+001
1.407881e+003,1.431372e+001
1.408846e+003,1.243158e+001
1.409810e+003,1.121252e+001
1.410774e+003,1.116534e+001
1.411738e+003,1.245282e+001
1.412703e+003,1.480591e+001
1.413667e+003,1.785980e+001
1.414631e+003,1.792645e+001
1.415595e+003,1.183997e+001
1.416559e+003,6.808105e+000
1.417524e+003,7.303711e+000
1.418488e+003,1.050098e+001
1.419452e+003,1.313904e+001
1.420416e+003,1.426111e+001
1.421381e+003,1.437506e+001
1.422345e+003,1.402515e+001
1.423309e+003,1.333081e+001
1.424273e+003,1.231537e+001
1.425238e+003,1.122150e+001
1.426202e+003,1.137457e+001
1.427166e+003,1.345483e+001
1.428130e+003,1.474750e+001
1.429094e+003,1.386597e+001
1.430059e+003,1.285144e+001
1.431023e+003,1.396393e+001
1.431987e+003,1.650946e+001
1.432951e+003,1.830768e+001
1.433916e+003,1.849219e+001
1.434880e+003,1.797528e+001
1.435844e+003,1.768121e+001
1.436808e+003,1.761664e+001
1.437773e+003,1.799115e+001
1.438737e+003,1.907550e+001
1.439701e+003,1.906586e+001
1.440665e+003,1.691687e+001
1.441630e+003,1.430829e+001
1.442594e+003,1.168396e+001
1.443558e+003,1.004626e+001
1.444522e+003,1.075012e+001
1.445486e+003,1.348279e+001
1.446451e+003,1.628278e+001
1.447415e+003,1.845453e+001
1.448379e+003,2.003656e+001
1.449343e+003,2.092560e+001
1.450308e+003,2.080042e+001
1.451272e+003,1.911700e+001
1.452236e+003,1.627039e+001
1.453200e+003,1.457416e+001
1.454165e+003,1.545966e+001
1.455129e+003,1.768768e+001
1.456093e+003,1.951447e+001
1.457057e+003,2.056744e+001
1.458021e+003,2.119012e+001
1.458986e+003,2.189911e+001
1.459950e+003,2.152618e+001
1.460914e+003,1.779486e+001
1.461878e+003,1.511914e+001
1.462843e+003,1.723120e+001
1.463807e+003,2.130493e+001
1.464771e+003,2.346783e+001
1.465735e+003,2.321686e+001
1.466700e+003,2.200946e+001
1.467664e+003,2.036877e+001
1.468628e+003,1.869556e+001
1.469592e+003,1.914795e+001
1.470557e+003,2.232361e+001
1.471521e+003,2.368628e+001
1.472485e+003,2.365546e+001
1.473449e+003,2.358667e+001
1.474413e+003,2.234149e+001
1.475378e+003,2.119702e+001
1.476342e+003,2.132141e+001
1.477306e+003,2.210803e+001
1.478270e+003,2.240149e+001
1.479235e+003,2.190204e+001
1.480199e+003,2.123547e+001
1.481163e+003,2.114337e+001
1.482127e+003,2.176416e+001
1.483092e+003,2.243213e+001
1.484056e+003,2.260944e+001
1.485020e+003,2.262238e+001
1.485984e+003,2.164673e+001
1.486948e+003,2.158704e+001
1.487913e+003,2.406195e+001
1.488877e+003,2.744592e+001
1.489841e+003,3.022711e+001
1.490805e+003,3.162689e+001
1.491770e+003,3.105389e+001
1.492734e+003,2.868597e+001
1.493698e+003,2.598547e+001
1.494662e+003,2.394958e+001
1.495627e+003,2.252026e+001
1.496591e+003,2.279980e+001
1.497555e+003,2.580109e+001
1.498519e+003,2.814185e+001
1.499484e+003,2.755841e+001
1.500448e+003,2.699219e+001
1.501412e+003,2.777734e+001
1.502376e+003,2.910962e+001
1.503340e+003,3.086841e+001
1.504305e+003,3.345984e+001
1.505269e+003,3.587408e+001
1.506233e+003,3.703973e+001
1.507197e+003,3.742053e+001
1.508162e+003,3.796234e+001
1.509126e+003,3.879974e+001
1.510090e+003,3.995392e+001
1.511054e+003,4.132794e+001
1.512019e+003,4.134192e+001
1.512983e+003,3.837915e+001
1.513947e+003,3.492993e+001
1.514911e+003,3.390717e+001
1.515875e+003,3.502527e+001
1.516840e+003,3.645349e+001
1.517804e+003,3.767139e+001
1.518768e+003,3.804559e+001
1.519732e+003,3.700995e+001
1.520697e+003,3.577570e+001
1.521661e+003,3.557080e+001
1.522625e+003,3.573334e+001
1.523589e+003,3.532013e+001
1.524554e+003,3.419788e+001
1.525518e+003,3.307037e+001
1.526482e+003,3.257910e+001
1.527446e+003,3.245099e+001
1.528411e+003,3.273431e+001
1.529375e+003,3.337866e+001
1.530339e+003,3.236810e+001
1.531303e+003,2.835101e+001
1.532267e+003,2.555548e+001
1.533232e+003,2.556555e+001
1.534196e+003,2.599121e+001
1.535160e+003,2.740656e+001
1.536124e+003,2.848505e+001
1.537089e+003,2.688086e+001
1.538053e+003,2.361328e+001
1.539017e+003,2.172479e+001
1.539981e+003,2.217853e+001
1.540946e+003,2.362439e+001
1.541910e+003,2.511353e+001
1.542874e+003,2.668250e+001
1.543838e+003,2.785889e+001
1.544802e+003,2.952948e+001
1.545767e+003,3.050958e+001
1.546731e+003,2.789667e+001
1.547695e+003,2.565082e+001
1.548659e+003,2.607654e+001
1.549624e+003,2.736584e+001
1.550588e+003,2.787604e+001
1.551552e+003,2.739825e+001
1.552516e+003,2.627960e+001
1.553481e+003,2.484277e+001
1.554445e+003,2.354712e+001
1.555409e+003,2.316302e+001
1.556373e+003,2.421271e+001
1.557338e+003,2.612732e+001
1.558302e+003,2.796716e+001
1.559266e+003,2.807715e+001
1.560230e+003,2.481482e+001
1.561194e+003,2.290625e+001
1.562159e+003,2.636353e+001
1.563123e+003,3.061340e+001
1.564087e+003,3.055963e+001
1.565051e+003,2.727509e+001
1.566016e+003,2.431860e+001
1.566980e+003,2.323615e+001
1.567944e+003,2.401721e+001
1.568908e+003,2.699017e+001
1.569873e+003,3.124243e+001
1.570837e+003,3.251440e+001
1.571801e+003,2.936304e+001
1.572765e+003,2.757782e+001
1.573729e+003,2.797638e+001
1.574694e+003,2.772198e+001
1.575658e+003,2.616821e+001
1.576622e+003,2.535663e+001
1.577586e+003,2.734509e+001
1.578551e+003,3.023639e+001
1.579515e+003,3.071490e+001
1.580479e+003,2.855939e+001
1.581443e+003,2.639893e+001
1.582408e+003,2.585132e+001
1.583372e+003,2.627283e+001
1.584336e+003,2.750153e+001
1.585300e+003,3.023334e+001
1.586265e+003,3.090247e+001
1.587229e+003,2.566913e+001
1.588193e+003,2.358301e+001
1.589157e+003,2.901752e+001
1.590121e+003,3.379285e+001
1.591086e+003,3.225140e+001
1.592050e+003,2.815222e+001
1.593014e+003,2.634113e+001
1.593978e+003,2.704095e+001
1.594943e+003,2.799634e+001
1.595907e+003,2.836108e+001
1.596871e+003,2.898279e+001
1.597835e+003,3.039551e+001
1.598800e+003,3.199268e+001
1.599764e+003,3.302423e+001
1.600728e+003,3.421832e+001
1.601692e+003,3.403223e+001
1.602656e+003,3.217792e+001
1.603621e+003,3.096606e+001
1.604585e+003,3.006781e+001
1.605549e+003,2.967834e+001
1.606513e+003,3.091052e+001
1.607478e+003,3.277228e+001
1.608442e+003,3.308942e+001
1.609406e+003,3.149384e+001
1.610370e+003,2.935583e+001
1.611335e+003,2.735168e+001
1.612299e+003,2.539893e+001
1.613263e+003,2.496704e+001
1.614227e+003,2.716278e+001
1.615192e+003,2.963440e+001
1.616156e+003,3.278815e+001
1.617120e+003,3.480322e+001
1.618084e+003,3.464508e+001
1.619048e+003,3.384906e+001
1.620013e+003,3.345630e+001
1.620977e+003,3.335126e+001
1.621941e+003,3.281281e+001
1.622905e+003,3.164783e+001
1.623870e+003,3.071594e+001
1.624834e+003,3.094220e+001
1.625798e+003,3.167999e+001
1.626762e+003,3.095575e+001
1.627727e+003,2.844122e+001
1.628691e+003,2.805750e+001
1.629655e+003,3.269812e+001
1.630619e+003,3.561060e+001
1.631583e+003,3.615204e+001
1.632548e+003,3.584052e+001
1.633512e+003,3.465991e+001
1.634476e+003,3.302032e+001
1.635440e+003,3.103815e+001
1.636405e+003,2.878290e+001
1.637369e+003,2.671991e+001
1.638333e+003,2.549469e+001
1.639297e+003,2.538318e+001
1.640262e+003,2.610443e+001
1.641226e+003,2.742010e+001
1.642190e+003,2.972809e+001
1.643154e+003,3.319659e+001
1.644119e+003,3.436108e+001
1.645083e+003,3.173163e+001
1.646047e+003,3.064880e+001
1.647011e+003,3.216931e+001
1.647975e+003,3.329675e+001
1.648940e+003,3.290448e+001
1.649904e+003,3.219031e+001
1.650868e+003,3.217371e+001
1.651832e+003,3.280933e+001
1.652797e+003,3.352112e+001
1.653761e+003,3.401862e+001
1.654725e+003,3.483453e+001
1.655689e+003,3.693304e+001
1.656654e+003,3.973468e+001
1.657618e+003,3.903119e+001
1.658582e+003,3.210675e+001
1.659546e+003,2.854694e+001
1.660510e+003,3.262677e+001
1.661475e+003,3.520001e+001
1.662439e+003,3.304480e+001
1.663403e+003,3.019537e+001
1.664367e+003,2.940314e+001
1.665332e+003,2.971521e+001
1.666296e+003,2.928217e+001
1.667260e+003,2.792316e+001
1.668224e+003,2.668604e+001
1.669189e+003,2.634290e+001
1.670153e+003,2.737231e+001
1.671117e+003,3.054462e+001
1.672081e+003,3.501324e+001
1.673046e+003,3.598523e+001
1.674010e+003,3.277618e+001
1.674974e+003,3.090625e+001
1.675938e+003,3.171802e+001
1.676902e+003,3.305890e+001
1.677867e+003,3.512964e+001
1.678831e+003,3.622095e+001
1.679795e+003,3.395282e+001
1.680759e+003,3.009253e+001
1.681724e+003,2.855273e+001
1.682688e+003,3.030243e+001
1.683652e+003,3.281799e+001
1.684616e+003,3.403003e+001
1.685581e+003,3.425055e+001
1.686545e+003,3.418286e+001
1.687509e+003,3.384863e+001
1.688473e+003,3.352924e+001
1.689438e+003,3.326489e+001
1.690402e+003,3.300061e+001
1.691366e+003,3.204413e+001
1.692330e+003,3.241449e+001
1.693294e+003,3.702490e+001
1.694259e+003,4.190863e+001
1.695223e+003,4.187616e+001
1.696187e+003,3.833929e+001
1.697151e+003,3.668365e+001
1.698116e+003,3.824542e+001
1.699080e+003,4.008575e+001
1.700044e+003,4.059515e+001
1.701008e+003,4.039325e+001
1.701973e+003,3.987933e+001
1.702937e+003,3.955151e+001
1.703901e+003,4.064948e+001
1.704865e+003,4.262408e+001
1.705829e+003,4.372388e+001
1.706794e+003,4.411237e+001
1.707758e+003,4.424091e+001
1.708722e+003,4.370160e+001
1.709686e+003,4.296014e+001
1.710651e+003,4.263239e+001
1.711615e+003,4.214398e+001
1.712579e+003,4.166669e+001
1.713543e+003,4.244000e+001
1.714508e+003,4.322272e+001
1.715472e+003,4.197406e+001
1.716436e+003,4.116302e+001
1.717400e+003,4.419843e+001
1.718365e+003,4.891290e+001
1.719329e+003,5.101892e+001
1.720293e+003,5.032306e+001
1.721257e+003,4.840369e+001
1.722221e+003,4.564111e+001
1.723186e+003,4.310297e+001
1.724150e+003,4.197272e+001
1.725114e+003,4.229010e+001
1.726078e+003,4.385413e+001
1.727043e+003,4.634003e+001
1.728007e+003,4.789899e+001
1.728971e+003,4.908673e+001
1.729935e+003,4.915887e+001
1.730900e+003,4.657025e+001
1.731864e+003,4.417230e+001
1.732828e+003,4.440753e+001
1.733792e+003,4.635834e+001
1.734756e+003,4.855487e+001
1.735721e+003,5.061523e+001
1.736685e+003,5.258997e+001
1.737649e+003,5.412323e+001
1.738613e+003,5.399170e+001
1.739578e+003,5.109760e+001
1.740542e+003,4.673792e+001
1.741506e+003,4.458246e+001
1.742470e+003,4.470880e+001
1.743435e+003,4.474750e+001
1.744399e+003,4.532037e+001
1.745363e+003,4.612958e+001
1.746327e+003,4.714655e+001
1.747292e+003,4.787646e+001
1.748256e+003,4.832178e+001
1.749220e+003,4.811273e+001
1.750184e+003,4.642004e+001
1.751148e+003,4.363861e+001
1.752113e+003,4.096118e+001
1.753077e+003,3.900885e+001
1.754041e+003,3.828900e+001
1.755005e+003,3.973969e+001
1.755970e+003,4.265448e+001
1.756934e+003,4.445770e+001
1.757898e+003,4.478485e+001
1.758862e+003,4.485754e+001
1.759827e+003,4.481738e+001
1.760791e+003,4.467560e+001
1.761755e+003,4.423138e+001
1.762719e+003,4.358710e+001
1.763683e+003,4.248737e+001
1.764648e+003,4.163983e+001
1.765612e+003,4.271991e+001
1.766576e+003,4.581146e+001
1.767540e+003,4.881897e+001
1.768505e+003,5.013464e+001
1.769469e+003,4.915350e+001
1.770433e+003,4.445343e+001
1.771397e+003,3.926984e+001
1.772362e+003,3.813159e+001
1.773326e+003,4.038715e+001
1.774290e+003,4.295245e+001
1.775254e+003,4.455182e+001
1.776219e+003,4.430896e+001
1.777183e+003,4.207678e+001
1.778147e+003,3.972394e+001
1.779111e+003,3.875677e+001
1.780075e+003,3.897906e+001
1.781040e+003,3.994293e+001
1.782004e+003,4.143988e+001
1.782968e+003,4.166400e+001
1.783932e+003,3.973810e+001
1.784897e+003,3.898816e+001
1.785861e+003,4.114911e+001
1.786825e+003,4.246802e+001
1.787789e+003,4.087103e+001
1.788754e+003,3.860602e+001
1.789718e+003,3.673138e+001
1.790682e+003,3.595514e+001
1.791646e+003,3.843451e+001
1.792610e+003,4.358478e+001
1.793575e+003,4.647772e+001
1.794539e+003,4.429254e+001
1.795503e+003,4.102338e+001
1.796467e+003,4.229230e+001
1.797432e+003,4.677716e+001
1.798396e+003,4.784198e+001
1.799360e+003,4.417389e+001
1.800324e+003,4.196271e+001
1.801289e+003,4.265326e+001
1.802253e+003,4.278986e+001
1.803217e+003,4.166852e+001
1.804181e+003,4.084491e+001
1.805146e+003,4.080707e+001
1.806110e+003,4.064691e+001
1.807074e+003,3.901410e+001
1.808038e+003,3.653204e+001
1.809002e+003,3.585333e+001
1.809967e+003,3.796039e+001
1.810931e+003,3.961346e+001
1.811895e+003,3.773077e+001
1.812859e+003,3.512262e+001
1.813824e+003,3.590399e+001
1.814788e+003,3.854669e+001
1.815752e+003,3.836078e+001
1.816716e+003,3.521686e+001
1.817681e+003,3.390497e+001
1.818645e+003,3.627118e+001
1.819609e+003,3.899982e+001
1.820573e+003,3.975055e+001
1.821537e+003,3.920953e+001
1.822502e+003,3.784735e+001
1.823466e+003,3.559808e+001
1.824430e+003,3.509174e+001
1.825394e+003,3.707452e+001
1.826359e+003,3.798309e+001
1.827323e+003,3.851764e+001
1.828287e+003,3.961798e+001
1.829251e+003,4.027362e+001
1.830216e+003,4.058405e+001
1.831180e+003,4.120209e+001
1.832144e+003,4.135870e+001
1.833108e+003,4.027850e+001
1.834073e+003,3.881793e+001
1.835037e+003,3.828656e+001
1.836001e+003,3.873187e+001
1.836965e+003,3.904413e+001
1.837929e+003,3.825409e+001
1.838894e+003,3.746515e+001
1.839858e+003,4.018781e+001
1.840822e+003,4.603192e+001
1.841786e+003,4.635675e+001
1.842751e+003,4.022491e+001
1.843715e+003,3.654047e+001
1.844679e+003,3.792682e+001
1.845643e+003,4.075458e+001
1.846608e+003,4.287958e+001
1.847572e+003,4.333453e+001
1.848536e+003,4.217999e+001
1.849500e+003,4.058270e+001
1.850464e+003,3.955304e+001
1.851429e+003,3.910858e+001
1.852393e+003,3.938800e+001
1.853357e+003,3.964557e+001
1.854321e+003,3.988385e+001
1.855286e+003,4.172968e+001
1.856250e+003,4.362970e+001
1.857214e+003,4.316522e+001
1.858178e+003,4.153448e+001
1.859143e+003,4.097675e+001
1.860107e+003,4.172614e+001
1.861071e+003,4.300677e+001
1.862035e+003,4.425446e+001
1.863000e+003,4.507159e+001
1.863964e+003,4.535272e+001
1.864928e+003,4.527716e+001
1.865892e+003,4.510223e+001
1.866856e+003,4.526129e+001
1.867821e+003,4.532880e+001
1.868785e+003,4.418451e+001
1.869749e+003,4.316058e+001
1.870713e+003,4.353644e+001
1.871678e+003,4.384113e+001
1.872642e+003,4.317218e+001
1.873606e+003,4.251385e+001
1.874570e+003,4.194452e+001
1.875535e+003,4.105695e+001
1.876499e+003,4.027472e+001
1.877463e+003,4.014264e+001
1.878427e+003,4.028607e+001
1.879391e+003,4.029181e+001
1.880356e+003,4.011115e+001
1.881320e+003,3.936896e+001
1.882284e+003,3.819305e+001
1.883248e+003,3.724115e+001
1.884213e+003,3.691351e+001
1.885177e+003,3.706464e+001
1.886141e+003,3.726544e+001
1.887105e+003,3.709442e+001
1.888070e+003,3.657672e+001
1.889034e+003,3.659186e+001
1.889998e+003,3.801093e+001
1.890962e+003,4.040558e+001
1.891927e+003,4.249542e+001
1.892891e+003,4.348309e+001
1.893855e+003,4.261700e+001
1.894819e+003,3.909955e+001
1.895783e+003,3.787067e+001
1.896748e+003,4.135992e+001
1.897712e+003,4.481915e+001
1.898676e+003,4.710602e+001
1.899640e+003,4.851678e+001
1.900605e+003,4.922125e+001
1.901569e+003,4.877423e+001
1.902533e+003,4.609845e+001
1.903497e+003,4.206354e+001
1.904462e+003,3.891803e+001
1.905426e+003,3.737994e+001
1.906390e+003,3.703607e+001
1.907354e+003,3.839679e+001
1.908318e+003,4.016766e+001
1.909283e+003,3.965082e+001
1.910247e+003,3.832404e+001
1.911211e+003,3.977753e+001
1.912175e+003,4.283466e+001
1.913140e+003,4.403937e+001
1.914104e+003,4.336359e+001
1.915068e+003,4.245697e+001
1.916032e+003,4.178778e+001
1.916997e+003,4.149359e+001
1.917961e+003,4.188715e+001
1.918925e+003,4.222223e+001
1.919889e+003,4.065594e+001
1.920854e+003,3.708954e+001
1.921818e+003,3.464349e+001
1.922782e+003,3.347260e+001
1.923746e+003,3.375739e+001
1.924710e+003,3.766449e+001
1.925675e+003,3.995514e+001
1.926639e+003,3.636664e+001
1.927603e+003,3.322357e+001
1.928567e+003,3.541913e+001
1.929532e+003,3.914227e+001
1.930496e+003,3.932733e+001
1.931460e+003,3.709772e+001
1.932424e+003,3.683539e+001
1.933389e+003,3.924457e+001
1.934353e+003,4.127582e+001
1.935317e+003,4.181244e+001
1.936281e+003,4.161261e+001
1.937245e+003,4.025494e+001
1.938210e+003,3.936346e+001
1.939174e+003,4.203339e+001
1.940138e+003,4.579510e+001
1.941102e+003,4.519147e+001
1.942067e+003,4.102325e+001
1.943031e+003,3.898248e+001
1.943995e+003,4.071625e+001
1.944959e+003,4.258185e+001
1.945924e+003,4.202325e+001
1.946888e+003,4.063165e+001
1.947852e+003,4.047565e+001
1.948816e+003,4.106952e+001
1.949781e+003,4.051251e+001
1.950745e+003,3.828436e+001
1.951709e+003,3.580951e+001
1.952673e+003,3.371625e+001
1.953637e+003,3.389288e+001
1.954602e+003,3.765387e+001
1.955566e+003,4.079083e+001
1.956530e+003,4.003754e+001
1.957494e+003,3.761688e+001
1.958459e+003,3.608795e+001
1.959423e+003,3.495026e+001
1.960387e+003,3.476813e+001
1.961351e+003,3.651678e+001
1.962316e+003,3.690692e+001
1.963280e+003,3.365387e+001
1.964244e+003,3.175214e+001
1.965208e+003,3.465546e+001
1.966172e+003,3.762238e+001
1.967137e+003,3.602765e+001
1.968101e+003,3.308514e+001
1.969065e+003,3.366937e+001
1.970029e+003,3.629852e+001
1.970994e+003,3.674066e+001
1.971958e+003,3.495636e+001
1.972922e+003,3.397125e+001
1.973886e+003,3.435004e+001
1.974851e+003,3.474628e+001
1.975815e+003,3.516595e+001
1.976779e+003,3.572296e+001
1.977743e+003,3.611188e+001
1.978708e+003,3.630780e+001
1.979672e+003,3.549823e+001
1.980636e+003,3.334589e+001
1.981600e+003,3.096576e+001
1.982564e+003,2.920038e+001
1.983529e+003,2.892670e+001
1.984493e+003,3.069171e+001
1.985457e+003,3.355023e+001
1.986421e+003,3.607587e+001
1.987386e+003,3.796429e+001
1.988350e+003,3.848492e+001
1.989314e+003,3.683185e+001
1.990278e+003,3.457904e+001
1.991243e+003,3.170184e+001
1.992207e+003,2.980267e+001
1.993171e+003,3.040326e+001
1.994135e+003,3.129083e+001
1.995099e+003,3.061957e+001
1.996064e+003,3.041022e+001
1.997028e+003,3.265656e+001
1.997992e+003,3.587445e+001
1.998956e+003,3.813129e+001
1.999921e+003,3.922369e+001
2.000885e+003,3.795331e+001
2.001849e+003,3.262335e+001
2.002813e+003,2.788947e+001
2.003778e+003,2.523822e+001
2.004742e+003,2.486774e+001
2.005706e+003,2.773871e+001
2.006670e+003,3.171722e+001
2.007635e+003,3.585651e+001
2.008599e+003,3.927728e+001
2.009563e+003,4.087653e+001
2.010527e+003,4.059174e+001
2.011491e+003,3.835004e+001
2.012456e+003,3.445184e+001
2.013420e+003,3.174677e+001
2.014384e+003,3.275812e+001
2.015348e+003,3.483197e+001
2.016313e+003,3.440326e+001
2.017277e+003,3.248773e+001
2.018241e+003,3.083771e+001
2.019205e+003,2.976324e+001
2.020170e+003,3.004706e+001
2.021134e+003,3.135284e+001
2.022098e+003,3.240936e+001
2.023062e+003,3.313336e+001
2.024026e+003,3.403766e+001
2.024991e+003,3.512189e+001
2.025955e+003,3.602899e+001
2.026919e+003,3.662091e+001
2.027883e+003,3.699274e+001
2.028848e+003,3.734015e+001
2.029812e+003,3.811652e+001
2.030776e+003,3.930096e+001
2.031740e+003,3.996649e+001
2.032705e+003,3.912494e+001
2.033669e+003,3.706915e+001
2.034633e+003,3.574188e+001
2.035597e+003,3.652045e+001
2.036562e+003,3.807025e+001
2.037526e+003,3.838165e+001
2.038490e+003,3.773444e+001
2.039454e+003,3.748102e+001
2.040418e+003,3.736224e+001
2.041383e+003,3.697809e+001
2.042347e+003,3.689508e+001
2.043311e+003,3.674261e+001
2.044275e+003,3.663434e+001
2.045240e+003,3.648224e+001
2.046204e+003,3.465704e+001
2.047168e+003,3.379437e+001
2.048132e+003,3.764227e+001
2.049097e+003,4.223419e+001
2.050061e+003,4.236249e+001
2.051025e+003,3.883295e+001
2.051989e+003,3.505560e+001
2.052954e+003,3.245233e+001
2.053918e+003,3.195367e+001
2.054882e+003,3.379449e+001
2.055846e+003,3.623468e+001
2.056811e+003,3.924762e+001
2.057775e+003,4.094464e+001
2.058739e+003,3.953265e+001
2.059703e+003,3.742987e+001
2.060667e+003,3.702032e+001
2.061632e+003,3.751593e+001
2.062596e+003,3.760931e+001
2.063560e+003,3.696820e+001
2.064524e+003,3.529193e+001
2.065489e+003,3.297687e+001
2.066453e+003,3.203802e+001
2.067417e+003,3.341510e+001
2.068381e+003,3.482697e+001
2.069345e+003,3.408929e+001
2.070310e+003,3.204633e+001
2.071274e+003,3.058698e+001
2.072238e+003,3.070502e+001
2.073202e+003,3.221490e+001
2.074167e+003,3.401300e+001
2.075131e+003,3.567743e+001
2.076095e+003,3.714508e+001
2.077059e+003,3.703766e+001
2.078023e+003,3.481415e+001
2.078988e+003,3.248407e+001
2.079952e+003,3.159686e+001
2.080916e+003,3.139471e+001
2.081880e+003,3.277081e+001
2.082845e+003,3.639032e+001
2.083809e+003,3.749200e+001
2.084773e+003,3.552521e+001
2.085737e+003,3.377545e+001
2.086702e+003,3.275629e+001
2.087666e+003,3.128876e+001
2.088630e+003,2.874640e+001
2.089594e+003,2.756146e+001
2.090559e+003,2.946259e+001
2.091523e+003,3.252728e+001
2.092487e+003,3.469586e+001
2.093451e+003,3.602448e+001
2.094416e+003,3.516656e+001
2.095380e+003,3.109894e+001
2.096344e+003,2.902094e+001
2.097308e+003,3.071136e+001
2.098272e+003,3.139020e+001
2.099237e+003,2.883990e+001
2.100201e+003,2.696014e+001
2.101165e+003,2.828839e+001
2.102129e+003,2.975140e+001
2.103094e+003,2.842596e+001
2.104058e+003,2.600922e+001
2.105022e+003,2.541718e+001
2.105986e+003,2.673151e+001
2.106951e+003,2.872296e+001
2.107915e+003,3.137518e+001
2.108879e+003,3.211200e+001
2.109843e+003,2.951129e+001
2.110808e+003,2.746539e+001
2.111772e+003,2.771246e+001
2.112736e+003,2.825018e+001
2.113700e+003,2.735223e+001
2.114665e+003,2.574579e+001
2.115629e+003,2.461493e+001
2.116593e+003,2.375592e+001
2.117557e+003,2.254095e+001
2.118521e+003,2.152069e+001
2.119486e+003,2.147784e+001
2.120450e+003,2.204193e+001
2.121414e+003,2.366412e+001
2.122378e+003,2.698065e+001
2.123343e+003,2.902789e+001
2.124307e+003,3.018744e+001
2.125271e+003,3.043280e+001
2.126235e+003,2.818304e+001
2.127199e+003,2.542438e+001
2.128164e+003,2.384174e+001
2.129128e+003,2.305768e+001
2.130092e+003,2.280280e+001
2.131056e+003,2.330280e+001
2.132021e+003,2.426886e+001
2.132985e+003,2.506012e+001
2.133949e+003,2.532501e+001
2.134913e+003,2.569940e+001
2.135877e+003,2.478998e+001
2.136842e+003,2.168512e+001
2.137806e+003,1.935638e+001
2.138770e+003,1.871344e+001
2.139734e+003,1.910223e+001
2.140699e+003,2.111615e+001
2.141663e+003,2.310309e+001
2.142627e+003,2.233026e+001
2.143591e+003,1.942865e+001
2.144556e+003,1.704779e+001
2.145520e+003,1.587103e+001
2.146484e+003,1.585236e+001
2.147448e+003,1.739655e+001
2.148413e+003,1.871735e+001
2.149377e+003,1.835565e+001
2.150341e+003,1.793048e+001
2.151305e+003,1.966595e+001
2.152270e+003,2.239996e+001
2.153234e+003,2.320819e+001
2.154198e+003,2.196002e+001
2.155162e+003,2.067365e+001
2.156126e+003,2.029523e+001
2.157091e+003,2.047589e+001
2.158055e+003,2.111993e+001
2.159019e+003,2.220282e+001
2.159983e+003,2.295001e+001
2.160948e+003,2.310834e+001
2.161912e+003,2.303021e+001
2.162876e+003,2.305658e+001
2.163840e+003,2.423676e+001
2.164805e+003,2.553888e+001
2.165769e+003,2.372577e+001
2.166733e+003,1.978375e+001
2.167697e+003,1.851215e+001
2.168662e+003,2.083087e+001
2.169626e+003,2.253253e+001
2.170590e+003,2.076691e+001
2.171554e+003,1.782611e+001
2.172519e+003,1.670258e+001
2.173483e+003,1.710187e+001
2.174447e+003,1.855316e+001
2.175411e+003,2.051862e+001
2.176375e+003,2.145221e+001
2.177340e+003,2.186688e+001
2.178304e+003,2.317621e+001
2.179268e+003,2.440216e+001
2.180232e+003,2.294781e+001
2.181197e+003,1.892719e+001
2.182161e+003,1.622162e+001
2.183125e+003,1.700031e+001
2.184089e+003,1.756390e+001
2.185053e+003,1.344379e+001
2.186018e+003,8.450378e+000
2.186982e+003,1.036737e+001
2.187946e+003,1.572198e+001
2.188910e+003,1.591901e+001
2.189875e+003,1.267828e+001
2.190839e+003,1.149078e+001
2.191803e+003,1.282721e+001
2.192767e+003,1.421149e+001
2.193731e+003,1.454218e+001
2.194696e+003,1.463519e+001
2.195660e+003,1.517511e+001
2.196624e+003,1.571063e+001
2.197588e+003,1.578094e+001
2.198553e+003,1.542377e+001
2.199517e+003,1.452911e+001
2.200481e+003,1.331512e+001
2.201445e+003,1.204108e+001
2.202410e+003,1.132452e+001
2.203374e+003,1.319855e+001
2.204338e+003,1.652081e+001
2.205302e+003,1.600885e+001
2.206267e+003,1.128204e+001
2.207231e+003,8.866882e+000
2.208195e+003,1.146320e+001
2.209159e+003,1.400165e+001
2.210124e+003,1.282037e+001
2.211088e+003,1.109186e+001
2.212052e+003,1.217084e+001
2.213016e+003,1.392621e+001
2.213980e+003,1.314850e+001
2.214945e+003,1.071503e+001
2.215909e+003,8.332092e+000
2.216873e+003,7.004456e+000
2.217837e+003,8.713562e+000
2.218802e+003,1.245038e+001
2.219766e+003,1.394940e+001
2.220730e+003,1.176593e+001
2.221694e+003,8.300964e+000
2.222659e+003,5.668884e+000
2.223623e+003,4.155823e+000
2.224587e+003,3.877991e+000
2.225551e+003,4.972961e+000
2.226516e+003,6.889099e+000
2.227480e+003,8.268982e+000
2.228444e+003,9.172791e+000
2.229408e+003,9.831238e+000
2.230373e+003,8.625427e+000
2.231337e+003,6.207336e+000
2.232301e+003,4.894592e+000
2.233265e+003,5.106262e+000
2.234229e+003,6.970520e+000
2.235194e+003,1.062787e+001
2.236158e+003,1.323712e+001
2.237122e+003,1.149054e+001
2.238086e+003,7.996155e+000
2.239051e+003,6.564026e+000
2.240015e+003,6.542908e+000
2.240979e+003,6.635437e+000
2.241943e+003,6.956970e+000
2.242907e+003,7.382385e+000
2.243872e+003,8.184509e+000
2.244836e+003,1.102325e+001
2.245800e+003,1.480585e+001
2.246764e+003,1.483893e+001
2.247729e+003,1.003400e+001
2.248693e+003,6.084167e+000
2.249657e+003,6.911438e+000
2.250621e+003,9.229797e+000
2.251585e+003,1.050836e+001
2.252550e+003,1.123676e+001
2.253514e+003,1.130109e+001
2.254478e+003,1.078546e+001
2.255442e+003,1.046417e+001
2.256407e+003,1.039801e+001
2.257371e+003,9.810486e+000
2.258335e+003,8.807556e+000
2.259299e+003,8.452942e+000
2.260264e+003,8.534241e+000
2.261228e+003,7.148010e+000
2.262192e+003,3.840759e+000
2.263156e+003,2.061340e+000
2.264121e+003,3.644226e+000
2.265085e+003,6.154724e+000
2.266049e+003,9.424622e+000
2.267013e+003,1.181110e+001
2.267978e+003,1.183197e+001
2.268942e+003,1.077203e+001
2.269906e+003,9.052429e+000
2.270870e+003,7.403259e+000
2.271834e+003,7.400085e+000
2.272799e+003,8.309998e+000
2.273763e+003,7.205627e+000
2.274727e+003,3.956604e+000
2.275691e+003,3.568787e+000
2.276656e+003,9.525940e+000
2.277620e+003,1.428583e+001
2.278584e+003,1.380231e+001
2.279548e+003,1.323688e+001
2.280513e+003,1.682220e+001
2.281477e+003,1.968732e+001
2.282441e+003,1.730157e+001
2.283405e+003,1.253961e+001
2.284370e+003,8.598328e+000
2.285334e+003,6.265198e+000
2.286298e+003,5.965271e+000
2.287262e+003,7.127380e+000
2.288227e+003,7.866760e+000
2.289191e+003,8.238708e+000
2.290155e+003,8.989563e+000
2.291119e+003,1.048163e+001
2.292083e+003,1.215948e+001
2.293048e+003,1.486932e+001
2.294012e+003,1.565875e+001
2.294976e+003,1.168927e+001
2.295940e+003,8.297546e+000
2.296905e+003,1.028925e+001
2.297869e+003,1.390570e+001
2.298833e+003,1.321832e+001
2.299797e+003,9.607239e+000
2.300761e+003,9.321716e+000
2.301726e+003,1.321820e+001
2.302690e+003,1.524457e+001
2.303654e+003,1.440106e+001
2.304618e+003,1.383563e+001
2.305583e+003,1.419537e+001
2.306547e+003,1.373273e+001
2.307511e+003,1.156183e+001
2.308475e+003,1.118805e+001
2.309439e+003,1.501825e+001
2.310404e+003,1.870929e+001
2.311368e+003,1.739105e+001
2.312332e+003,1.358917e+001
2.313296e+003,1.333258e+001
2.314261e+003,1.614349e+001
2.315225e+003,1.702521e+001
2.316189e+003,1.605341e+001
2.317153e+003,1.697577e+001
2.318118e+003,1.943634e+001
2.319082e+003,1.998993e+001
2.320046e+003,1.860809e+001
2.321010e+003,1.815485e+001
2.321975e+003,1.971503e+001
2.322939e+003,2.177509e+001
2.323903e+003,2.288580e+001
2.324867e+003,2.443146e+001
2.325832e+003,2.879352e+001
2.326796e+003,3.343732e+001
2.327760e+003,3.426080e+001
2.328724e+003,3.360785e+001
2.329688e+003,3.445795e+001
2.330653e+003,3.539020e+001
2.331617e+003,3.449139e+001
2.332581e+003,3.240424e+001
2.333545e+003,3.052216e+001
2.334510e+003,2.953790e+001
2.335474e+003,2.989899e+001
2.336438e+003,3.125677e+001
2.337402e+003,3.227423e+001
2.338367e+003,3.251556e+001
2.339331e+003,3.290460e+001
2.340295e+003,3.398615e+001
2.341259e+003,3.488763e+001
2.342224e+003,3.438934e+001
2.343188e+003,3.486847e+001
2.344152e+003,3.916132e+001
2.345116e+003,4.441766e+001
2.346081e+003,4.737140e+001
2.347045e+003,4.839362e+001
2.348009e+003,4.899738e+001
2.348973e+003,4.935614e+001
2.349938e+003,4.890314e+001
2.350902e+003,4.727740e+001
2.351866e+003,4.645453e+001
2.352830e+003,4.746832e+001
2.353794e+003,5.015753e+001
2.354759e+003,5.567645e+001
2.355723e+003,5.936774e+001
2.356687e+003,5.898126e+001
2.357651e+003,5.834918e+001
2.358615e+003,5.891937e+001
2.359580e+003,6.054596e+001
2.360544e+003,6.375812e+001
2.361508e+003,6.735175e+001
2.362472e+003,6.927008e+001
2.363437e+003,7.019391e+001
2.364401e+003,7.026740e+001
2.365365e+003,6.846075e+001
2.366329e+003,6.926312e+001
2.367293e+003,7.279523e+001
2.368258e+003,7.537518e+001
2.369222e+003,7.696588e+001
2.370186e+003,7.987555e+001
2.371150e+003,8.466107e+001
2.372115e+003,8.832098e+001
2.373079e+003,8.889703e+001
2.374043e+003,8.758270e+001
2.375007e+003,8.587372e+001
2.375972e+003,8.598724e+001
2.376936e+003,9.195953e+001
2.377900e+003,9.978510e+001
2.378864e+003,1.004937e+002
2.379829e+003,9.736444e+001
2.380793e+003,9.719061e+001
2.381757e+003,9.954449e+001
2.382721e+003,1.032691e+002
2.383686e+003,1.070775e+002
2.384650e+003,1.079286e+002
2.385614e+003,1.058665e+002
2.386578e+003,1.037587e+002
2.387542e+003,1.025577e+002
2.388507e+003,1.033682e+002
2.389471e+003,1.086904e+002
2.390435e+003,1.123290e+002
2.391399e+003,1.088765e+002
2.392364e+003,1.063886e+002
2.393328e+003,1.107960e+002
2.394292e+003,1.151154e+002
2.395256e+003,1.127508e+002
2.396221e+003,1.090510e+002
2.397185e+003,1.113917e+002
2.398149e+003,1.169589e+002
2.399113e+003,1.184787e+002
2.400078e+003,1.160919e+002
2.401042e+003,1.143076e+002
2.402006e+003,1.131380e+002
2.402970e+003,1.130995e+002
2.403935e+003,1.139376e+002
2.404899e+003,1.165356e+002
2.405863e+003,1.223292e+002
2.406827e+003,1.248337e+002
2.407792e+003,1.219949e+002
2.408756e+003,1.194726e+002
2.409720e+003,1.193481e+002
2.410684e+003,1.203784e+002
2.411648e+003,1.223406e+002
2.412613e+003,1.249445e+002
2.413577e+003,1.276635e+002
2.414541e+003,1.303406e+002
2.415505e+003,1.302408e+002
2.416469e+003,1.278482e+002
2.417434e+003,1.274274e+002
2.418398e+003,1.286174e+002
2.419362e+003,1.282842e+002
2.420326e+003,1.271395e+002
2.421291e+003,1.290662e+002
2.422255e+003,1.327911e+002
2.423219e+003,1.321618e+002
2.424183e+003,1.266774e+002
2.425147e+003,1.234754e+002
2.426112e+003,1.258654e+002
2.427076e+003,1.293511e+002
2.428040e+003,1.314926e+002
2.429004e+003,1.327443e+002
2.429969e+003,1.340374e+002
2.430933e+003,1.349589e+002
2.431897e+003,1.343249e+002
2.432861e+003,1.338428e+002
2.433826e+003,1.364998e+002
2.434790e+003,1.393044e+002
2.435754e+003,1.366960e+002
2.436718e+003,1.307690e+002
2.437683e+003,1.284145e+002
2.438647e+003,1.297188e+002
2.439611e+003,1.293959e+002
2.440575e+003,1.268757e+002
2.441540e+003,1.260040e+002
2.442504e+003,1.270754e+002
2.443468e+003,1.269644e+002
2.444432e+003,1.252393e+002
2.445396e+003,1.239437e+002
2.446361e+003,1.234996e+002
2.447325e+003,1.229057e+002
2.448289e+003,1.218150e+002
2.449253e+003,1.199545e+002
2.450218e+003,1.169887e+002
2.451182e+003,1.145671e+002
2.452146e+003,1.141171e+002
2.453110e+003,1.136525e+002
2.454075e+003,1.117979e+002
2.455039e+003,1.095764e+002
2.456003e+003,1.082802e+002
2.456967e+003,1.079417e+002
2.457932e+003,1.074368e+002
2.458896e+003,1.063893e+002
2.459860e+003,1.055378e+002
2.460824e+003,1.046407e+002
2.461789e+003,1.018860e+002
2.462753e+003,9.689801e+001
2.463717e+003,9.481219e+001
2.464681e+003,9.903156e+001
2.465646e+003,1.017834e+002
2.466610e+003,1.006141e+002
2.467574e+003,9.899078e+001
2.468538e+003,9.814056e+001
2.469502e+003,9.817157e+001
2.470467e+003,9.907086e+001
2.471431e+003,9.943976e+001
2.472395e+003,9.822260e+001
2.473359e+003,9.569867e+001
2.474323e+003,9.270514e+001
2.475288e+003,8.989618e+001
2.476252e+003,8.659674e+001
2.477216e+003,8.315656e+001
2.478180e+003,8.389386e+001
2.479145e+003,8.684955e+001
2.480109e+003,8.645807e+001
2.481073e+003,8.397467e+001
2.482037e+003,8.349030e+001
2.483001e+003,8.505951e+001
2.483966e+003,8.595062e+001
2.484930e+003,8.509528e+001
2.485894e+003,8.397723e+001
2.486858e+003,8.356317e+001
2.487823e+003,8.213361e+001
2.488787e+003,7.799420e+001
2.489751e+003,7.526276e+001
2.490715e+003,7.544745e+001
2.491680e+003,7.608685e+001
2.492644e+003,7.733246e+001
2.493608e+003,7.824615e+001
2.494572e+003,7.710846e+001
2.495537e+003,7.589642e+001
2.496501e+003,7.662531e+001
2.497465e+003,7.751971e+001
2.498429e+003,7.625641e+001
2.499394e+003,7.395807e+001
2.500358e+003,7.309833e+001
2.501322e+003,7.363336e+001
2.502286e+003,7.394916e+001
2.503250e+003,7.423895e+001
2.504215e+003,7.776434e+001
2.505179e+003,8.301959e+001
2.506143e+003,8.255109e+001
2.507107e+003,7.687714e+001
2.508072e+003,7.396393e+001
2.509036e+003,7.596613e+001
2.510000e+003,7.845587e+001
2.510964e+003,7.947833e+001
2.511929e+003,7.945648e+001
2.512893e+003,7.777240e+001
2.513857e+003,7.581183e+001
2.514821e+003,7.250543e+001
2.515786e+003,7.101593e+001
2.516750e+003,7.632062e+001
2.517714e+003,8.168439e+001
2.518678e+003,8.184979e+001
2.519643e+003,7.939471e+001
2.520607e+003,7.588080e+001
2.521571e+003,7.322833e+001
2.522535e+003,7.453510e+001
2.523500e+003,7.816022e+001
2.524464e+003,7.935028e+001
2.525428e+003,7.838922e+001
2.526392e+003,7.720026e+001
2.527356e+003,7.650140e+001
2.528321e+003,7.774237e+001
2.529285e+003,8.001764e+001
2.530249e+003,8.108856e+001
2.531213e+003,8.046820e+001
2.532177e+003,7.891852e+001
2.533142e+003,7.743048e+001
2.534106e+003,7.664056e+001
2.535070e+003,7.664691e+001
2.536034e+003,7.760382e+001
2.536999e+003,7.944440e+001
2.537963e+003,7.910065e+001
2.538927e+003,7.480499e+001
2.539891e+003,7.178192e+001
2.540855e+003,7.289825e+001
2.541820e+003,7.499786e+001
2.542784e+003,7.669525e+001
2.543748e+003,7.623395e+001
2.544712e+003,7.139203e+001
2.545677e+003,6.676923e+001
2.546641e+003,6.824127e+001
2.547605e+003,7.326495e+001
2.548569e+003,7.631879e+001
2.549534e+003,7.780902e+001
2.550498e+003,7.811688e+001
2.551462e+003,7.771918e+001
2.552426e+003,7.691144e+001
2.553391e+003,7.540143e+001
2.554355e+003,7.480377e+001
2.555319e+003,7.473761e+001
2.556283e+003,7.323383e+001
2.557248e+003,7.103363e+001
2.558212e+003,7.056586e+001
2.559176e+003,7.174957e+001
2.560140e+003,7.200665e+001
2.561104e+003,7.047491e+001
2.562069e+003,6.869452e+001
2.563033e+003,6.701776e+001
2.563997e+003,6.550629e+001
2.564961e+003,6.428180e+001
2.565926e+003,6.370697e+001
2.566890e+003,6.436591e+001
2.567854e+003,6.419135e+001
2.568818e+003,6.112274e+001
2.569783e+003,5.809320e+001
2.570747e+003,5.891229e+001
2.571711e+003,6.125214e+001
2.572675e+003,6.008844e+001
2.573640e+003,5.688739e+001
2.574604e+003,5.498187e+001
2.575568e+003,5.380902e+001
2.576532e+003,5.382294e+001
2.577497e+003,5.487323e+001
2.578461e+003,5.594501e+001
2.579425e+003,5.677924e+001
2.580389e+003,5.686115e+001
2.581354e+003,5.597174e+001
2.582318e+003,5.490936e+001
2.583282e+003,5.419611e+001
2.584246e+003,5.359344e+001
2.585210e+003,5.348663e+001
2.586175e+003,5.307709e+001
2.587139e+003,5.157904e+001
2.588103e+003,5.006952e+001
2.589067e+003,4.847125e+001
2.590031e+003,4.764264e+001
2.590996e+003,4.759845e+001
2.591960e+003,4.806622e+001
2.592924e+003,4.942865e+001
2.593888e+003,5.045929e+001
2.594853e+003,4.996735e+001
2.595817e+003,4.892938e+001
2.596781e+003,4.772931e+001
2.597745e+003,4.663190e+001
2.598709e+003,4.824469e+001
2.599674e+003,5.002240e+001
2.600638e+003,4.717169e+001
2.601602e+003,4.395648e+001
2.602566e+003,4.574567e+001
2.603531e+003,4.776019e+001
2.604495e+003,4.439838e+001
2.605459e+003,4.039752e+001
2.606423e+003,4.105035e+001
2.607388e+003,4.367694e+001
2.608352e+003,4.334442e+001
2.609316e+003,4.087164e+001
2.610280e+003,3.871051e+001
2.611245e+003,3.731976e+001
2.612209e+003,3.741071e+001
2.613173e+003,3.801654e+001
2.614137e+003,3.753180e+001
2.615102e+003,3.612164e+001
2.616066e+003,3.582050e+001
2.617030e+003,3.717767e+001
2.617994e+003,3.903961e+001
2.618958e+003,4.080670e+001
2.619923e+003,4.005609e+001
2.620887e+003,3.374677e+001
2.621851e+003,3.103021e+001
2.622815e+003,3.797369e+001
2.623780e+003,4.111053e+001
2.624744e+003,3.823322e+001
2.625708e+003,3.425934e+001
2.626672e+003,3.042291e+001
2.627637e+003,2.872296e+001
2.628601e+003,2.989142e+001
2.629565e+003,3.177325e+001
2.630529e+003,3.287811e+001
2.631494e+003,3.397308e+001
2.632458e+003,3.541266e+001
2.633422e+003,3.717462e+001
2.634386e+003,4.020135e+001
2.635351e+003,4.164032e+001
2.636315e+003,3.911676e+001
2.637279e+003,3.600275e+001
2.638243e+003,3.458563e+001
2.639208e+003,3.462177e+001
2.640172e+003,3.480560e+001
2.641136e+003,3.492169e+001
2.642100e+003,3.614740e+001
2.643064e+003,3.713971e+001
2.644029e+003,3.449689e+001
2.644993e+003,2.956769e+001
2.645957e+003,2.879657e+001
2.646921e+003,3.189069e+001
2.647885e+003,3.383490e+001
2.648850e+003,3.433344e+001
2.649814e+003,3.450714e+001
2.650778e+003,3.418024e+001
2.651742e+003,3.375995e+001
2.652707e+003,3.352850e+001
2.653671e+003,3.302057e+001
2.654635e+003,3.282184e+001
2.655599e+003,3.387433e+001
2.656563e+003,3.588239e+001
2.657528e+003,3.699054e+001
2.658492e+003,3.582269e+001
2.659456e+003,3.336481e+001
2.660420e+003,3.078339e+001
2.661385e+003,2.936871e+001
2.662349e+003,2.928766e+001
2.663313e+003,2.821173e+001
2.664277e+003,2.510504e+001
2.665242e+003,2.395892e+001
2.666206e+003,2.718109e+001
2.667170e+003,3.025983e+001
2.668134e+003,2.912799e+001
2.669099e+003,2.717645e+001
2.670063e+003,2.825665e+001
2.671027e+003,2.939740e+001
2.671991e+003,2.718463e+001
2.672956e+003,2.518146e+001
2.673920e+003,2.691644e+001
2.674884e+003,2.856158e+001
2.675848e+003,2.732343e+001
2.676813e+003,2.560431e+001
2.677777e+003,2.551141e+001
2.678741e+003,2.564337e+001
2.679705e+003,2.465790e+001
2.680669e+003,2.421136e+001
2.681634e+003,2.559869e+001
2.682598e+003,2.648505e+001
2.683562e+003,2.514398e+001
2.684526e+003,2.262921e+001
2.685491e+003,1.942999e+001
2.686455e+003,1.750494e+001
2.687419e+003,1.743878e+001
2.688383e+003,1.770990e+001
2.689348e+003,1.900372e+001
2.690312e+003,2.143353e+001
2.691276e+003,2.138361e+001
2.692240e+003,1.973285e+001
2.693205e+003,1.957111e+001
2.694169e+003,1.953680e+001
2.695133e+003,1.839594e+001
2.696097e+003,1.648016e+001
2.697062e+003,1.636188e+001
2.698026e+003,1.847223e+001
2.698990e+003,1.949567e+001
2.699954e+003,1.864545e+001
2.700918e+003,1.806415e+001
2.701883e+003,1.822174e+001
2.702847e+003,1.888678e+001
2.703811e+003,2.137067e+001
2.704775e+003,2.234344e+001
2.705740e+003,2.101337e+001
2.706704e+003,1.847955e+001
2.707668e+003,1.337091e+001
2.708632e+003,1.072333e+001
2.709596e+003,1.148529e+001
2.710561e+003,1.268573e+001
2.711525e+003,1.343182e+001
2.712489e+003,1.272174e+001
2.713453e+003,9.796326e+000
2.714417e+003,8.059387e+000
2.715382e+003,1.102911e+001
2.716346e+003,1.406622e+001
2.717310e+003,1.517218e+001
2.718274e+003,1.630682e+001
2.719239e+003,1.600629e+001
2.720203e+003,1.509772e+001
2.721167e+003,1.434393e+001
2.722131e+003,1.268903e+001
2.723096e+003,1.008624e+001
2.724060e+003,8.214539e+000
2.725024e+003,8.035583e+000
2.725988e+003,8.754089e+000
2.726953e+003,1.012836e+001
2.727917e+003,1.211334e+001
2.728881e+003,1.239496e+001
2.729845e+003,1.077716e+001
2.730810e+003,8.938782e+000
2.731774e+003,6.521179e+000
2.732738e+003,3.761902e+000
2.733702e+003,3.055847e+000
2.734667e+003,3.913147e+000
2.735631e+003,5.107117e+000
2.736595e+003,7.637878e+000
2.737559e+003,9.966248e+000
2.738523e+003,8.279724e+000
2.739488e+003,4.898132e+000
2.740452e+003,6.032166e+000
2.741416e+003,9.347839e+000
2.742380e+003,9.093933e+000
2.743345e+003,7.358459e+000
2.744309e+003,9.131287e+000
2.745273e+003,1.214349e+001
2.746237e+003,1.230048e+001
2.747202e+003,9.930359e+000
2.748166e+003,6.335510e+000
2.749130e+003,2.842224e+000
2.750094e+003,2.190613e+000
2.751059e+003,3.919373e+000
2.752023e+003,6.874573e+000
2.752987e+003,1.052496e+001
2.753951e+003,1.158856e+001
2.754916e+003,1.094452e+001
2.755880e+003,1.055756e+001
2.756844e+003,1.058160e+001
2.757808e+003,1.136090e+001
2.758772e+003,1.228839e+001
2.759737e+003,1.167950e+001
2.760701e+003,9.314270e+000
2.761665e+003,6.399841e+000
2.762629e+003,2.788635e+000
2.763594e+003,2.247864e+000
2.764558e+003,5.101746e+000
2.765522e+003,7.271790e+000
2.766486e+003,8.906677e+000
2.767450e+003,8.812561e+000
2.768415e+003,7.605286e+000
2.769379e+003,7.319763e+000
2.770343e+003,7.306702e+000
2.771307e+003,7.550842e+000
2.772271e+003,9.002380e+000
2.773236e+003,9.141541e+000
2.774200e+003,7.147400e+000
2.775164e+003,7.267883e+000
2.776128e+003,5.125305e+000
2.777093e+003,3.831604e+000
2.778057e+003,8.403381e+000
2.779021e+003,8.353577e+000
2.779985e+003,2.622864e+000
2.780950e+003,3.923950e-001
2.781914e+003,1.800354e+000
2.782878e+003,3.682922e+000
2.783842e+003,6.241150e+000
2.784807e+003,7.646790e+000
2.785771e+003,7.101624e+000
2.786735e+003,7.350525e+000
2.787699e+003,8.723083e+000
2.788664e+003,9.585876e+000
2.789628e+003,9.184998e+000
2.790592e+003,8.317200e+000
2.791556e+003,7.270447e+000
2.792521e+003,6.854675e+000
2.793485e+003,7.095764e+000
2.794449e+003,7.643738e+000
2.795413e+003,9.085632e+000
2.796377e+003,1.048969e+001
2.797342e+003,1.038568e+001
2.798306e+003,9.748840e+000
2.799270e+003,7.924133e+000
2.800234e+003,7.383606e+000
2.801199e+003,9.223450e+000
2.802163e+003,1.047162e+001
2.803127e+003,1.046686e+001
2.804091e+003,9.907410e+000
2.805056e+003,1.081097e+001
2.806020e+003,1.213617e+001
2.806984e+003,9.849304e+000
2.807948e+003,6.004822e+000
2.808913e+003,8.175232e+000
2.809877e+003,1.073077e+001
2.810841e+003,5.746521e+000
2.811805e+003,3.175476e+000
2.812770e+003,6.978699e+000
2.813734e+003,8.602600e+000
2.814698e+003,7.305481e+000
2.815662e+003,7.393250e+000
2.816626e+003,1.006012e+001
2.817591e+003,1.195673e+001
2.818555e+003,1.044879e+001
2.819519e+003,8.176941e+000
2.820483e+003,7.921692e+000
2.821448e+003,8.536194e+000
2.822412e+003,9.696472e+000
2.823376e+003,1.057648e+001
2.824340e+003,1.088922e+001
2.825304e+003,1.092145e+001
2.826269e+003,9.616394e+000
2.827233e+003,8.184631e+000
2.828197e+003,7.576599e+000
2.829161e+003,7.272278e+000
2.830125e+003,7.063171e+000
2.831090e+003,7.041687e+000
2.832054e+003,7.447937e+000
2.833018e+003,8.216492e+000
2.833982e+003,8.484558e+000
2.834947e+003,7.454041e+000
2.835911e+003,3.711121e+000
2.836875e+003,1.713196e+000
2.837839e+003,6.449036e+000
2.838804e+003,1.147443e+001
2.839768e+003,1.144855e+001
2.840732e+003,9.135071e+000
2.841696e+003,8.608337e+000
2.842661e+003,8.748718e+000
2.843625e+003,8.098694e+000
2.844589e+003,8.009827e+000
2.845553e+003,6.611145e+000
2.846518e+003,6.226257e+000
2.847482e+003,1.237213e+001
2.848446e+003,1.736456e+001
2.849410e+003,1.376923e+001
2.850375e+003,9.926086e+000
2.851339e+003,1.219098e+001
2.852303e+003,1.530634e+001
2.853267e+003,1.273346e+001
2.854231e+003,8.059387e+000
2.855196e+003,7.920593e+000
2.856160e+003,9.506042e+000
2.857124e+003,9.612976e+000
2.858088e+003,8.999695e+000
2.859053e+003,6.650696e+000
2.860017e+003,5.151672e+000
2.860981e+003,7.651672e+000
2.861945e+003,1.009296e+001
2.862910e+003,1.025397e+001
2.863874e+003,9.714539e+000
2.864838e+003,8.694519e+000
2.865802e+003,7.820129e+000
2.866767e+003,1.034625e+001
2.867731e+003,1.279376e+001
2.868695e+003,1.052057e+001
2.869659e+003,8.316589e+000
2.870624e+003,1.020477e+001
2.871588e+003,1.323480e+001
2.872552e+003,1.470685e+001
2.873516e+003,1.441412e+001
2.874480e+003,1.270245e+001
2.875445e+003,1.118781e+001
2.876409e+003,1.099774e+001
2.877373e+003,1.215619e+001
2.878337e+003,1.615985e+001
2.879302e+003,1.909027e+001
2.880266e+003,1.662714e+001
2.881230e+003,1.308783e+001
2.882194e+003,1.092780e+001
2.883158e+003,1.005219e+001
2.884123e+003,9.665466e+000
2.885087e+003,9.651062e+000
2.886051e+003,1.073016e+001
2.887015e+003,1.198920e+001
2.887979e+003,1.157672e+001
2.888944e+003,1.044501e+001
2.889908e+003,9.871033e+000
2.890872e+003,8.978210e+000
2.891836e+003,7.416565e+000
2.892801e+003,6.657288e+000
2.893765e+003,8.689148e+000
2.894729e+003,1.010663e+001
2.895693e+003,8.512878e+000
2.896658e+003,6.854919e+000
2.897622e+003,6.804260e+000
2.898586e+003,7.012146e+000
2.899550e+003,7.036804e+000
2.900515e+003,7.105408e+000
2.901479e+003,6.959167e+000
2.902443e+003,7.662415e+000
2.903407e+003,1.018158e+001
2.904372e+003,1.092792e+001
2.905336e+003,8.398254e+000
2.906300e+003,6.265076e+000
2.907264e+003,5.334656e+000
2.908229e+003,5.206238e+000
2.909193e+003,6.262024e+000
2.910157e+003,7.152771e+000
2.911121e+003,5.833679e+000
2.912085e+003,4.984680e+000
2.913050e+003,6.255432e+000
2.914014e+003,7.148132e+000
2.914978e+003,7.054749e+000
2.915942e+003,8.499084e+000
2.916907e+003,1.319354e+001
2.917871e+003,1.579938e+001
2.918835e+003,1.396808e+001
2.919799e+003,1.057562e+001
2.920764e+003,7.337097e+000
2.921728e+003,6.119202e+000
2.922692e+003,8.925110e+000
2.923656e+003,1.101215e+001
2.924621e+003,9.342712e+000
2.925585e+003,8.248596e+000
2.926549e+003,9.003601e+000
2.927513e+003,1.054657e+001
2.928478e+003,1.243292e+001
2.929442e+003,1.329169e+001
2.930406e+003,1.262701e+001
2.931370e+003,1.037775e+001
2.932334e+003,7.060486e+000
2.933299e+003,6.421692e+000
2.934263e+003,1.142682e+001
2.935227e+003,1.475616e+001
2.936191e+003,1.252167e+001
2.937156e+003,1.032465e+001
2.938120e+003,8.779602e+000
2.939084e+003,9.664856e+000
2.940048e+003,1.288861e+001
2.941012e+003,1.383258e+001
2.941977e+003,1.161407e+001
2.942941e+003,1.037494e+001
2.943905e+003,1.153253e+001
2.944869e+003,1.133575e+001
2.945833e+003,7.858337e+000
2.946798e+003,7.474304e+000
2.947762e+003,1.093671e+001
2.948726e+003,1.347552e+001
2.949690e+003,1.460333e+001
2.950655e+003,1.706830e+001
2.951619e+003,1.994342e+001
2.952583e+003,1.781659e+001
2.953547e+003,1.142377e+001
2.954512e+003,7.899841e+000
2.955476e+003,9.266663e+000
2.956440e+003,9.636780e+000
2.957404e+003,7.327942e+000
2.958369e+003,7.631409e+000
2.959333e+003,1.039899e+001
2.960297e+003,1.217694e+001
2.961261e+003,1.317902e+001
2.962226e+003,1.287042e+001
2.963190e+003,1.155194e+001
2.964154e+003,1.267694e+001
2.965118e+003,1.579938e+001
2.966083e+003,1.467633e+001
2.967047e+003,1.019806e+001
2.968011e+003,9.165100e+000
2.968975e+003,1.059503e+001
2.969939e+003,9.997620e+000
2.970904e+003,9.006897e+000
2.971868e+003,1.146063e+001
2.972832e+003,1.453339e+001
2.973796e+003,1.294086e+001
2.974761e+003,9.330505e+000
2.975725e+003,8.629211e+000
2.976689e+003,9.751526e+000
2.977653e+003,1.132147e+001
2.978618e+003,1.256537e+001
2.979582e+003,1.070538e+001
2.980546e+003,7.823669e+000
2.981510e+003,7.143860e+000
2.982475e+003,7.356384e+000
2.983439e+003,7.418396e+000
2.984403e+003,7.508972e+000
2.985367e+003,7.940125e+000
2.986332e+003,9.219177e+000
2.987296e+003,1.180573e+001
2.988260e+003,1.386407e+001
2.989224e+003,1.323627e+001
2.990188e+003,1.145648e+001
2.991153e+003,1.014203e+001
2.992117e+003,1.002960e+001
2.993081e+003,1.188739e+001
2.994045e+003,1.398505e+001
2.995010e+003,1.563019e+001
2.995974e+003,1.634784e+001
2.996938e+003,1.620123e+001
2.997902e+003,1.537738e+001
2.998866e+003,1.388898e+001
2.999831e+003,1.298810e+001
3.000795e+003,1.368561e+001
3.001759e+003,1.447626e+001
3.002723e+003,1.515131e+001
3.003688e+003,1.424896e+001
3.004652e+003,1.099506e+001
3.005616e+003,1.029108e+001
3.006580e+003,1.263947e+001
3.007544e+003,1.491705e+001
3.008509e+003,1.602496e+001
3.009473e+003,1.484772e+001
3.010437e+003,1.159625e+001
3.011401e+003,1.108722e+001
3.012366e+003,1.553119e+001
3.013330e+003,1.736932e+001
3.014294e+003,1.624615e+001
3.015258e+003,1.337970e+001
3.016223e+003,9.603210e+000
3.017187e+003,1.078546e+001
3.018151e+003,1.583099e+001
3.019115e+003,1.947797e+001
3.020080e+003,2.078094e+001
3.021044e+003,1.969952e+001
3.022008e+003,1.598724e+001
3.022972e+003,1.414301e+001
3.023937e+003,1.488251e+001
3.024901e+003,1.675458e+001
3.025865e+003,1.940179e+001
3.026829e+003,1.947662e+001
3.027793e+003,1.772943e+001
3.028758e+003,1.708429e+001
3.029722e+003,1.770782e+001
3.030686e+003,1.950848e+001
3.031650e+003,2.069330e+001
3.032615e+003,1.903693e+001
3.033579e+003,1.679706e+001
3.034543e+003,1.731805e+001
3.035507e+003,1.930853e+001
3.036472e+003,2.233478e+001
3.037436e+003,2.373236e+001
3.038400e+003,2.112262e+001
3.039364e+003,1.816388e+001
3.040329e+003,1.544891e+001
3.041293e+003,1.399774e+001
3.042257e+003,1.459528e+001
3.043221e+003,1.635419e+001
3.044186e+003,1.924554e+001
3.045150e+003,2.123175e+001
3.046114e+003,1.806903e+001
3.047078e+003,1.615424e+001
3.048042e+003,2.006671e+001
3.049007e+003,2.213507e+001
3.049971e+003,2.114032e+001
3.050935e+003,2.009161e+001
3.051899e+003,2.009296e+001
3.052864e+003,2.010687e+001
3.053828e+003,1.958319e+001
3.054792e+003,2.042023e+001
3.055756e+003,2.360175e+001
3.056720e+003,2.461591e+001
3.057685e+003,2.128888e+001
3.058649e+003,1.952106e+001
3.059613e+003,1.929608e+001
3.060577e+003,2.178534e+001
3.061542e+003,2.609357e+001
3.062506e+003,2.593353e+001
3.063470e+003,2.265179e+001
3.064434e+003,2.265594e+001
3.065398e+003,2.519635e+001
3.066363e+003,2.532562e+001
3.067327e+003,2.408698e+001
3.068291e+003,2.392230e+001
3.069255e+003,2.448273e+001
3.070220e+003,2.572455e+001
3.071184e+003,2.690485e+001
3.072148e+003,2.745807e+001
3.073112e+003,2.770074e+001
3.074077e+003,2.573395e+001
3.075041e+003,2.352594e+001
3.076005e+003,2.413690e+001
3.076969e+003,2.581744e+001
3.077934e+003,2.542377e+001
3.078898e+003,2.416608e+001
3.079862e+003,2.357953e+001
3.080826e+003,2.416193e+001
3.081791e+003,2.822382e+001
3.082755e+003,3.039459e+001
3.083719e+003,2.796710e+001
3.084683e+003,2.577069e+001
3.085647e+003,2.582062e+001
3.086612e+003,2.763104e+001
3.087576e+003,3.023529e+001
3.088540e+003,3.128339e+001
3.089504e+003,3.001862e+001
3.090469e+003,2.905536e+001
3.091433e+003,2.929291e+001
3.092397e+003,2.906232e+001
3.093361e+003,2.802411e+001
3.094326e+003,2.837738e+001
3.095290e+003,3.037738e+001
3.096254e+003,3.390106e+001
3.097218e+003,3.740021e+001
3.098183e+003,3.655963e+001
3.099147e+003,3.182440e+001
3.100111e+003,2.975507e+001
3.101075e+003,2.993195e+001
3.102040e+003,2.974249e+001
3.103004e+003,2.951495e+001
3.103968e+003,3.196014e+001
3.104932e+003,3.488824e+001
3.105896e+003,3.379669e+001
3.106861e+003,3.184808e+001
3.107825e+003,3.376410e+001
3.108789e+003,3.621100e+001
3.109753e+003,3.514301e+001
3.110718e+003,3.247260e+001
3.111682e+003,3.086090e+001
3.112646e+003,3.067596e+001
3.113610e+003,3.360175e+001
3.114574e+003,3.555914e+001
3.115539e+003,3.249969e+001
3.116503e+003,3.111957e+001
3.117467e+003,3.379523e+001
3.118431e+003,3.588531e+001
3.119396e+003,3.540924e+001
3.120360e+003,3.414655e+001
3.121324e+003,3.268781e+001
3.122288e+003,3.198834e+001
3.123252e+003,3.359332e+001
3.124217e+003,3.364154e+001
3.125181e+003,3.242548e+001
3.126145e+003,3.378864e+001
3.127109e+003,3.732086e+001
3.128074e+003,4.001862e+001
3.129038e+003,4.054437e+001
3.130002e+003,3.809125e+001
3.130966e+003,3.380573e+001
3.131931e+003,3.175739e+001
3.132895e+003,3.239703e+001
3.133859e+003,3.339288e+001
3.134823e+003,3.405475e+001
3.135788e+003,3.524445e+001
3.136752e+003,3.621014e+001
3.137716e+003,3.549213e+001
3.138680e+003,3.537421e+001
3.139645e+003,3.694537e+001
3.140609e+003,3.865070e+001
3.141573e+003,4.049982e+001
3.142537e+003,4.147748e+001
3.143501e+003,3.915240e+001
3.144466e+003,3.721918e+001
3.145430e+003,3.954108e+001
3.146394e+003,4.142426e+001
3.147358e+003,4.182684e+001
3.148323e+003,4.187946e+001
3.149287e+003,4.137250e+001
3.150251e+003,4.025995e+001
3.151215e+003,3.887311e+001
3.152180e+003,3.871722e+001
3.153144e+003,4.055536e+001
3.154108e+003,4.119525e+001
3.155072e+003,3.892792e+001
3.156037e+003,3.902435e+001
3.157001e+003,4.134491e+001
3.157965e+003,4.261639e+001
3.158929e+003,4.381464e+001
3.159894e+003,4.657941e+001
3.160858e+003,4.854620e+001
3.161822e+003,4.560211e+001
3.162786e+003,4.141522e+001
3.163750e+003,4.118073e+001
3.164715e+003,4.266974e+001
3.165679e+003,4.188312e+001
3.166643e+003,4.112958e+001
3.167607e+003,4.279205e+001
3.168572e+003,4.489569e+001
3.169536e+003,4.585956e+001
3.170500e+003,4.728351e+001
3.171464e+003,5.059991e+001
3.172428e+003,5.167413e+001
3.173393e+003,4.840192e+001
3.174357e+003,4.532928e+001
3.175321e+003,4.501202e+001
3.176285e+003,4.532452e+001
3.177250e+003,4.588373e+001
3.178214e+003,4.775690e+001
3.179178e+003,5.119708e+001
3.180142e+003,5.241962e+001
3.181106e+003,5.100507e+001
3.182071e+003,4.918597e+001
3.183035e+003,4.785211e+001
3.183999e+003,4.794391e+001
3.184963e+003,4.916302e+001
3.185928e+003,4.884784e+001
3.186892e+003,4.708051e+001
3.187856e+003,4.601178e+001
3.188820e+003,4.619647e+001
3.189785e+003,4.893622e+001
3.190749e+003,5.173273e+001
3.191713e+003,5.268317e+001
3.192677e+003,5.232660e+001
3.193642e+003,5.064948e+001
3.194606e+003,5.102911e+001
3.195570e+003,5.539069e+001
3.196534e+003,5.837848e+001
3.197499e+003,5.585760e+001
3.198463e+003,5.303583e+001
3.199427e+003,5.132318e+001
3.200391e+003,5.144183e+001
3.201355e+003,5.341815e+001
3.202320e+003,5.569147e+001
3.203284e+003,5.756427e+001
3.204248e+003,5.601447e+001
3.205212e+003,5.214569e+001
3.206177e+003,5.264337e+001
3.207141e+003,5.650177e+001
3.208105e+003,5.757391e+001
3.209069e+003,5.710590e+001
3.210034e+003,5.797137e+001
3.210998e+003,5.865509e+001
3.211962e+003,5.836896e+001
3.212926e+003,5.731720e+001
3.213891e+003,5.377289e+001
3.214855e+003,5.277301e+001
3.215819e+003,5.712701e+001
3.216783e+003,6.060968e+001
3.217748e+003,5.895782e+001
3.218712e+003,5.713397e+001
3.219676e+003,5.847528e+001
3.220640e+003,5.870807e+001
3.221604e+003,5.696600e+001
3.222569e+003,5.676581e+001
3.223533e+003,5.846075e+001
3.224497e+003,5.717572e+001
3.225461e+003,5.354877e+001
3.226426e+003,5.489020e+001
3.227390e+003,6.070160e+001
3.228354e+003,6.223492e+001
3.229318e+003,6.011188e+001
3.230282e+003,5.902948e+001
3.231247e+003,5.854181e+001
3.232211e+003,5.854291e+001
3.233175e+003,5.879901e+001
3.234139e+003,5.599005e+001
3.235104e+003,5.416425e+001
3.236068e+003,5.646564e+001
3.237032e+003,6.007513e+001
3.237996e+003,6.358221e+001
3.238960e+003,6.502509e+001
3.239925e+003,6.210846e+001
3.240889e+003,5.945013e+001
3.241853e+003,5.897711e+001
3.242817e+003,6.042572e+001
3.243782e+003,6.383392e+001
3.244746e+003,6.309686e+001
3.245710e+003,5.945819e+001
3.246674e+003,5.995099e+001
3.247639e+003,6.331537e+001
3.248603e+003,6.372565e+001
3.249567e+003,6.200800e+001
3.250531e+003,5.891962e+001
3.251496e+003,5.531439e+001
3.252460e+003,5.594135e+001
3.253424e+003,5.831403e+001
3.254388e+003,6.040533e+001
3.255353e+003,6.325104e+001
3.256317e+003,6.671979e+001
3.257281e+003,6.742828e+001
3.258245e+003,6.441791e+001
3.259209e+003,6.252802e+001
3.260174e+003,6.444476e+001
3.261138e+003,6.641803e+001
3.262102e+003,6.652655e+001
3.263066e+003,6.729108e+001
3.264031e+003,6.923090e+001
3.264995e+003,6.799469e+001
3.265959e+003,6.442181e+001
3.266923e+003,6.352582e+001
3.267888e+003,6.526556e+001
3.268852e+003,6.786749e+001
3.269816e+003,6.996576e+001
3.270780e+003,7.010089e+001
3.271745e+003,6.897455e+001
3.272709e+003,6.889020e+001
3.273673e+003,6.918451e+001
3.274637e+003,6.736981e+001
3.275602e+003,6.641559e+001
3.276566e+003,6.803888e+001
3.277530e+003,6.885748e+001
3.278494e+003,6.814764e+001
3.279458e+003,6.623541e+001
3.280423e+003,6.367438e+001
3.281387e+003,6.354279e+001
3.282351e+003,6.737653e+001
3.283315e+003,6.958832e+001
3.284280e+003,6.989227e+001
3.285244e+003,7.116193e+001
3.286208e+003,7.278632e+001
3.287172e+003,7.240082e+001
3.288136e+003,7.124908e+001
3.289101e+003,7.172919e+001
3.290065e+003,7.258698e+001
3.291029e+003,7.256427e+001
3.291993e+003,7.230646e+001
3.292958e+003,7.260736e+001
3.293922e+003,7.276984e+001
3.294886e+003,7.117413e+001
3.295850e+003,7.098688e+001
3.296814e+003,7.312750e+001
3.297779e+003,7.579242e+001
3.298743e+003,7.857037e+001
3.299707e+003,8.076703e+001
3.300671e+003,8.190216e+001
3.301636e+003,8.019757e+001
3.302600e+003,7.563116e+001
3.303564e+003,7.471173e+001
3.304528e+003,7.717523e+001
3.305493e+003,7.899347e+001
3.306457e+003,7.967267e+001
3.307421e+003,7.784686e+001
3.308385e+003,7.577020e+001
3.309350e+003,7.524615e+001
3.310314e+003,7.677570e+001
3.311278e+003,8.063287e+001
3.312242e+003,8.266681e+001
3.313207e+003,8.029889e+001
3.314171e+003,7.938202e+001
3.315135e+003,8.277802e+001
3.316099e+003,8.498322e+001
3.317063e+003,8.618170e+001
3.318028e+003,8.548456e+001
3.318992e+003,8.388959e+001
3.319956e+003,8.188348e+001
3.320920e+003,7.999945e+001
3.321885e+003,8.117462e+001
3.322849e+003,8.403033e+001
3.323813e+003,8.563409e+001
3.324777e+003,8.584698e+001
3.325742e+003,8.502667e+001
3.326706e+003,8.425592e+001
3.327670e+003,8.350067e+001
3.328634e+003,8.430756e+001
3.329599e+003,8.747357e+001
3.330563e+003,8.852631e+001
3.331527e+003,8.616779e+001
3.332491e+003,8.486261e+001
3.333456e+003,8.612238e+001
3.334420e+003,8.703204e+001
3.335384e+003,8.844965e+001
3.336348e+003,9.072064e+001
3.337313e+003,9.280487e+001
3.338277e+003,9.319452e+001
3.339241e+003,9.218927e+001
3.340205e+003,9.184027e+001
3.341169e+003,9.194611e+001
3.342134e+003,9.092157e+001
3.343098e+003,9.019965e+001
3.344062e+003,9.166046e+001
3.345026e+003,9.297870e+001
3.345990e+003,9.083990e+001
3.346955e+003,8.973785e+001
3.347919e+003,9.060333e+001
3.348883e+003,9.083319e+001
3.349847e+003,9.104266e+001
3.350812e+003,9.034906e+001
3.351776e+003,8.932599e+001
3.352740e+003,9.084955e+001
3.353704e+003,9.370258e+001
3.354668e+003,9.437079e+001
3.355633e+003,9.386969e+001
3.356597e+003,9.369891e+001
3.357561e+003,9.321210e+001
3.358525e+003,9.168451e+001
3.359490e+003,9.101691e+001
3.360454e+003,9.274298e+001
3.361418e+003,9.478754e+001
3.362382e+003,9.607513e+001
3.363347e+003,9.657599e+001
3.364311e+003,9.628693e+001
3.365275e+003,9.733600e+001
3.366239e+003,1.004940e+002
3.367204e+003,1.011445e+002
3.368168e+003,1.002766e+002
3.369132e+003,9.883344e+001
3.370096e+003,9.775299e+001
3.371061e+003,9.960883e+001
3.372025e+003,1.013283e+002
3.372989e+003,1.008541e+002
3.373953e+003,1.000656e+002
3.374917e+003,1.002009e+002
3.375882e+003,1.002276e+002
3.376846e+003,9.799298e+001
3.377810e+003,9.788690e+001
3.378774e+003,1.020912e+002
3.379739e+003,1.024273e+002
3.380703e+003,9.960919e+001
3.381667e+003,1.004941e+002
3.382631e+003,1.039969e+002
3.383596e+003,1.049404e+002
3.384560e+003,1.042658e+002
3.385524e+003,1.040103e+002
3.386488e+003,1.039590e+002
3.387453e+003,1.062993e+002
3.388417e+003,1.080352e+002
3.389381e+003,1.051183e+002
3.390345e+003,1.026940e+002
3.391310e+003,1.014919e+002
3.392274e+003,1.015001e+002
3.393238e+003,1.030716e+002
3.394202e+003,1.041924e+002
3.395167e+003,1.039753e+002
3.396131e+003,1.048244e+002
3.397095e+003,1.063427e+002
3.398059e+003,1.074069e+002
3.399023e+003,1.086806e+002
3.399988e+003,1.087868e+002
3.400952e+003,1.078777e+002
3.401916e+003,1.046321e+002
3.402880e+003,1.030334e+002
3.403844e+003,1.051857e+002
3.404809e+003,1.084698e+002
3.405773e+003,1.113417e+002
3.406737e+003,1.123973e+002
3.407701e+003,1.111716e+002
3.408666e+003,1.092230e+002
3.409630e+003,1.064849e+002
3.410594e+003,1.077520e+002
3.411558e+003,1.108995e+002
3.412522e+003,1.129827e+002
3.413487e+003,1.134492e+002
3.414451e+003,1.106746e+002
3.415415e+003,1.080499e+002
3.416379e+003,1.086165e+002
3.417344e+003,1.100458e+002
3.418308e+003,1.104268e+002
3.419272e+003,1.105306e+002
3.420236e+003,1.106109e+002
3.421201e+003,1.102672e+002
3.422165e+003,1.098499e+002
3.423129e+003,1.096469e+002
3.424093e+003,1.096457e+002
3.425058e+003,1.103813e+002
3.426022e+003,1.113040e+002
3.426986e+003,1.115182e+002
3.427950e+003,1.113176e+002
3.428915e+003,1.112142e+002
3.429879e+003,1.112291e+002
3.430843e+003,1.096243e+002
3.431807e+003,1.095002e+002
3.432771e+003,1.117061e+002
3.433736e+003,1.150026e+002
3.434700e+003,1.183049e+002
3.435664e+003,1.177192e+002
3.436628e+003,1.137094e+002
3.437593e+003,1.123618e+002
3.438557e+003,1.129743e+002
3.439521e+003,1.149296e+002
3.440485e+003,1.171255e+002
3.441450e+003,1.183535e+002
3.442414e+003,1.178453e+002
3.443378e+003,1.124117e+002
3.444342e+003,1.090717e+002
3.445307e+003,1.118541e+002
3.446271e+003,1.153085e+002
3.447235e+003,1.155224e+002
3.448199e+003,1.149619e+002
3.449164e+003,1.141114e+002
3.450128e+003,1.142131e+002
3.451092e+003,1.158565e+002
3.452056e+003,1.163592e+002
3.453021e+003,1.157247e+002
3.453985e+003,1.160504e+002
3.454949e+003,1.166736e+002
3.455913e+003,1.164294e+002
3.456877e+003,1.152283e+002
3.457842e+003,1.135893e+002
3.458806e+003,1.126243e+002
3.459770e+003,1.125424e+002
3.460734e+003,1.134892e+002
3.461698e+003,1.146025e+002
3.462663e+003,1.134102e+002
3.463627e+003,1.117376e+002
3.464591e+003,1.126938e+002
3.465555e+003,1.144391e+002
3.466520e+003,1.142048e+002
3.467484e+003,1.132831e+002
3.468448e+003,1.137419e+002
3.469412e+003,1.143511e+002
3.470376e+003,1.134106e+002
3.471341e+003,1.131022e+002
3.472305e+003,1.131037e+002
3.473269e+003,1.152593e+002
3.474233e+003,1.188090e+002
3.475198e+003,1.195583e+002
3.476162e+003,1.184890e+002
3.477126e+003,1.188276e+002
3.478090e+003,1.194415e+002
3.479055e+003,1.192410e+002
3.480019e+003,1.186784e+002
3.480983e+003,1.193860e+002
3.481947e+003,1.211187e+002
3.482912e+003,1.230410e+002
3.483876e+003,1.223535e+002
3.484840e+003,1.187888e+002
3.485804e+003,1.167798e+002
3.486769e+003,1.176846e+002
3.487733e+003,1.182271e+002
3.488697e+003,1.185018e+002
3.489661e+003,1.218550e+002
3.490625e+003,1.252404e+002
3.491590e+003,1.230413e+002
3.492554e+003,1.201496e+002
3.493518e+003,1.202662e+002
3.494482e+003,1.210858e+002
3.495447e+003,1.210633e+002
3.496411e+003,1.214499e+002
3.497375e+003,1.229280e+002
3.498339e+003,1.220230e+002
3.499304e+003,1.188670e+002
3.500268e+003,1.183989e+002
