9.974011e+001,2.849782e+002
1.007043e+002,2.849976e+002
1.016686e+002,2.867607e+002
1.026328e+002,2.901799e+002
1.035970e+002,2.923710e+002
1.045613e+002,2.940821e+002
1.055255e+002,2.951467e+002
1.064897e+002,2.949950e+002
1.074540e+002,2.922606e+002
1.084182e+002,2.892846e+002
1.093824e+002,2.856157e+002
1.103467e+002,2.811767e+002
1.113109e+002,2.763461e+002
1.122751e+002,2.728654e+002
1.132394e+002,2.712682e+002
1.142036e+002,2.715467e+002
1.151678e+002,2.732553e+002
1.161321e+002,2.747976e+002
1.170963e+002,2.735004e+002
1.180605e+002,2.700804e+002
1.190248e+002,2.658572e+002
1.199890e+002,2.623487e+002
1.209532e+002,2.609504e+002
1.219175e+002,2.593832e+002
1.228817e+002,2.571831e+002
1.238459e+002,2.547663e+002
1.248102e+002,2.530102e+002
1.257744e+002,2.518009e+002
1.267386e+002,2.512001e+002
1.277029e+002,2.516499e+002
1.286671e+002,2.524740e+002
1.296313e+002,2.516044e+002
1.305956e+002,2.457490e+002
1.315598e+002,2.396279e+002
1.325240e+002,2.351409e+002
1.334883e+002,2.333124e+002
1.344525e+002,2.336444e+002
1.354167e+002,2.345401e+002
1.363810e+002,2.355828e+002
1.373452e+002,2.365685e+002
1.383094e+002,2.373851e+002
1.392737e+002,2.381650e+002
1.402379e+002,2.382570e+002
1.412021e+002,2.373521e+002
1.421664e+002,2.357691e+002
1.431306e+002,2.340404e+002
1.440948e+002,2.321997e+002
1.450591e+002,2.311776e+002
1.460233e+002,2.309361e+002
1.469875e+002,2.311143e+002
1.479518e+002,2.310838e+002
1.489160e+002,2.302035e+002
1.498802e+002,2.285904e+002
1.508445e+002,2.266479e+002
1.518087e+002,2.248372e+002
1.527729e+002,2.237841e+002
1.537372e+002,2.237972e+002
1.547014e+002,2.234250e+002
1.556656e+002,2.218714e+002
1.566299e+002,2.188047e+002
1.575941e+002,2.145789e+002
1.585583e+002,2.104035e+002
1.595226e+002,2.056785e+002
1.604868e+002,2.018347e+002
1.614510e+002,2.002894e+002
1.624153e+002,2.019701e+002
1.633795e+002,2.025802e+002
1.643438e+002,2.022249e+002
1.653080e+002,2.015222e+002
1.662722e+002,2.012103e+002
1.672365e+002,2.019110e+002
1.682007e+002,2.021810e+002
1.691649e+002,2.016275e+002
1.701292e+002,2.004673e+002
1.710934e+002,1.991221e+002
1.720576e+002,1.972441e+002
1.730219e+002,1.954800e+002
1.739861e+002,1.955288e+002
1.749503e+002,1.976865e+002
1.759146e+002,2.012735e+002
1.768788e+002,2.011171e+002
1.778430e+002,1.985960e+002
1.788073e+002,1.958935e+002
1.797715e+002,1.940442e+002
1.807357e+002,1.931892e+002
1.817000e+002,1.930881e+002
1.826642e+002,1.918195e+002
1.836284e+002,1.903649e+002
1.845927e+002,1.898749e+002
1.855569e+002,1.918594e+002
1.865211e+002,1.920480e+002
1.874854e+002,1.888108e+002
1.884496e+002,1.838977e+002
1.894138e+002,1.790810e+002
1.903781e+002,1.761377e+002
1.913423e+002,1.752686e+002
1.923065e+002,1.757779e+002
1.932708e+002,1.771038e+002
1.942350e+002,1.785040e+002
1.951992e+002,1.786687e+002
1.961635e+002,1.778926e+002
1.971277e+002,1.772799e+002
1.980919e+002,1.771922e+002
1.990562e+002,1.776763e+002
2.000204e+002,1.780504e+002
2.009846e+002,1.778916e+002
2.019489e+002,1.774658e+002
2.029131e+002,1.769136e+002
2.038773e+002,1.763587e+002
2.048416e+002,1.759157e+002
2.058058e+002,1.758590e+002
2.067700e+002,1.756079e+002
2.077343e+002,1.742379e+002
2.086985e+002,1.711125e+002
2.096627e+002,1.674300e+002
2.106270e+002,1.681983e+002
2.115912e+002,1.725909e+002
2.125554e+002,1.773311e+002
2.135197e+002,1.785364e+002
2.144839e+002,1.733259e+002
2.154481e+002,1.703489e+002
2.164124e+002,1.717356e+002
2.173766e+002,1.751319e+002
2.183408e+002,1.765308e+002
2.193051e+002,1.727588e+002
2.202693e+002,1.696615e+002
2.212335e+002,1.687105e+002
2.221978e+002,1.690408e+002
2.231620e+002,1.687355e+002
2.241262e+002,1.651015e+002
2.250904e+002,1.622199e+002
2.260547e+002,1.625989e+002
2.270189e+002,1.659675e+002
2.279831e+002,1.704617e+002
2.289474e+002,1.719041e+002
2.299116e+002,1.713784e+002
2.308758e+002,1.704818e+002
2.318401e+002,1.697561e+002
2.328043e+002,1.693496e+002
2.337685e+002,1.700468e+002
2.347328e+002,1.714003e+002
2.356970e+002,1.717709e+002
2.366612e+002,1.704948e+002
2.376255e+002,1.675675e+002
2.385897e+002,1.652620e+002
2.395539e+002,1.646281e+002
2.405182e+002,1.645925e+002
2.414824e+002,1.646780e+002
2.424466e+002,1.646498e+002
2.434109e+002,1.642797e+002
2.443751e+002,1.621531e+002
2.453393e+002,1.592371e+002
2.463036e+002,1.572406e+002
2.472678e+002,1.581528e+002
2.482320e+002,1.626014e+002
2.491963e+002,1.652196e+002
2.501605e+002,1.652159e+002
2.511247e+002,1.641225e+002
2.520890e+002,1.644521e+002
2.530532e+002,1.670532e+002
2.540174e+002,1.701428e+002
2.549817e+002,1.757091e+002
2.559459e+002,1.821102e+002
2.569102e+002,1.859515e+002
2.578744e+002,1.818635e+002
2.588386e+002,1.762766e+002
2.598029e+002,1.718878e+002
2.607671e+002,1.693859e+002
2.617313e+002,1.687523e+002
2.626956e+002,1.706706e+002
2.636598e+002,1.740287e+002
2.646240e+002,1.768006e+002
2.655883e+002,1.782363e+002
2.665525e+002,1.782255e+002
2.675167e+002,1.778897e+002
2.684810e+002,1.778616e+002
2.694452e+002,1.781803e+002
2.704094e+002,1.788001e+002
2.713737e+002,1.796994e+002
2.723379e+002,1.811100e+002
2.733021e+002,1.838479e+002
2.742664e+002,1.852507e+002
2.752306e+002,1.837890e+002
2.761948e+002,1.792883e+002
2.771591e+002,1.755555e+002
2.781233e+002,1.772312e+002
2.790875e+002,1.804291e+002
2.800518e+002,1.822654e+002
2.810160e+002,1.810945e+002
2.819802e+002,1.781218e+002
2.829445e+002,1.778539e+002
2.839087e+002,1.795601e+002
2.848729e+002,1.817913e+002
2.858372e+002,1.834823e+002
2.868014e+002,1.845836e+002
2.877656e+002,1.859308e+002
2.887299e+002,1.864939e+002
2.896941e+002,1.868470e+002
2.906583e+002,1.877118e+002
2.916226e+002,1.898641e+002
2.925868e+002,1.927030e+002
2.935510e+002,1.976690e+002
2.945153e+002,2.022921e+002
2.954795e+002,2.037101e+002
2.964437e+002,1.988978e+002
2.974080e+002,1.923300e+002
2.983722e+002,1.894423e+002
2.993364e+002,1.895705e+002
3.003007e+002,1.918344e+002
3.012649e+002,1.951317e+002
3.022291e+002,1.989404e+002
3.031934e+002,2.000638e+002
3.041576e+002,1.981983e+002
3.051218e+002,1.951306e+002
3.060861e+002,1.937072e+002
3.070503e+002,1.948930e+002
3.080145e+002,1.945574e+002
3.089788e+002,1.921431e+002
3.099430e+002,1.894005e+002
3.109072e+002,1.889983e+002
3.118715e+002,1.942032e+002
3.128357e+002,1.998268e+002
3.137999e+002,2.028708e+002
3.147642e+002,2.033752e+002
3.157284e+002,2.024938e+002
3.166926e+002,2.022891e+002
3.176569e+002,2.030483e+002
3.186211e+002,2.036577e+002
3.195853e+002,2.038913e+002
3.205496e+002,2.038731e+002
3.215138e+002,2.042008e+002
3.224780e+002,2.047672e+002
3.234423e+002,2.046692e+002
3.244065e+002,2.035614e+002
3.253707e+002,2.018391e+002
3.263350e+002,2.007620e+002
3.272992e+002,2.016154e+002
3.282634e+002,2.030797e+002
3.292277e+002,2.048312e+002
3.301919e+002,2.067897e+002
3.311561e+002,2.091018e+002
3.321204e+002,2.126844e+002
3.330846e+002,2.154010e+002
3.340488e+002,2.159975e+002
3.350131e+002,2.144282e+002
3.359773e+002,2.113516e+002
3.369415e+002,2.076818e+002
3.379058e+002,2.042168e+002
3.388700e+002,2.029619e+002
3.398342e+002,2.047931e+002
3.407985e+002,2.091975e+002
3.417627e+002,2.124624e+002
3.427269e+002,2.125109e+002
3.436912e+002,2.120972e+002
3.446554e+002,2.119774e+002
3.456196e+002,2.123879e+002
3.465839e+002,2.130467e+002
3.475481e+002,2.140435e+002
3.485123e+002,2.154007e+002
3.494765e+002,2.165423e+002
3.504408e+002,2.171910e+002
3.514050e+002,2.174717e+002
3.523692e+002,2.186897e+002
3.533335e+002,2.203260e+002
3.542977e+002,2.215913e+002
3.552619e+002,2.224022e+002
3.562262e+002,2.230999e+002
3.571904e+002,2.242826e+002
3.581546e+002,2.254456e+002
3.591189e+002,2.262860e+002
3.600831e+002,2.262306e+002
3.610473e+002,2.251977e+002
3.620116e+002,2.247233e+002
3.629758e+002,2.264204e+002
3.639400e+002,2.282173e+002
3.649043e+002,2.297631e+002
3.658685e+002,2.308712e+002
3.668327e+002,2.313896e+002
3.677970e+002,2.316400e+002
3.687612e+002,2.313215e+002
3.697254e+002,2.288912e+002
3.706897e+002,2.246309e+002
3.716539e+002,2.206026e+002
3.726181e+002,2.231026e+002
3.735824e+002,2.295318e+002
3.745466e+002,2.332336e+002
3.755108e+002,2.321468e+002
3.764751e+002,2.273107e+002
3.774393e+002,2.256055e+002
3.784035e+002,2.297895e+002
3.793678e+002,2.329311e+002
3.803320e+002,2.335374e+002
3.812962e+002,2.320876e+002
3.822605e+002,2.310582e+002
3.832247e+002,2.307160e+002
3.841889e+002,2.313221e+002
3.851532e+002,2.337711e+002
3.861174e+002,2.374992e+002
3.870816e+002,2.407290e+002
3.880459e+002,2.406647e+002
3.890101e+002,2.387840e+002
3.899743e+002,2.363337e+002
3.909386e+002,2.339134e+002
3.919028e+002,2.320910e+002
3.928670e+002,2.322923e+002
3.938313e+002,2.343490e+002
3.947955e+002,2.359088e+002
3.957597e+002,2.368564e+002
3.967240e+002,2.373996e+002
3.976882e+002,2.377714e+002
3.986524e+002,2.378051e+002
3.996167e+002,2.385856e+002
4.005809e+002,2.400457e+002
4.015451e+002,2.416346e+002
4.025094e+002,2.425247e+002
4.034736e+002,2.419969e+002
4.044378e+002,2.424853e+002
4.054021e+002,2.460487e+002
4.063663e+002,2.515560e+002
4.073305e+002,2.561853e+002
4.082948e+002,2.549870e+002
4.092590e+002,2.483547e+002
4.102232e+002,2.438025e+002
4.111875e+002,2.420028e+002
4.121517e+002,2.420278e+002
4.131159e+002,2.418690e+002
4.140802e+002,2.430871e+002
4.150444e+002,2.447895e+002
4.160086e+002,2.462638e+002
4.169729e+002,2.477716e+002
4.179371e+002,2.496296e+002
4.189013e+002,2.505353e+002
4.198656e+002,2.509922e+002
4.208298e+002,2.535784e+002
4.217940e+002,2.568434e+002
4.227583e+002,2.586108e+002
4.237225e+002,2.566985e+002
4.246867e+002,2.533478e+002
4.256510e+002,2.514974e+002
4.266152e+002,2.505570e+002
4.275794e+002,2.504105e+002
4.285437e+002,2.512929e+002
4.295079e+002,2.539886e+002
4.304721e+002,2.553245e+002
4.314364e+002,2.553979e+002
4.324006e+002,2.553309e+002
4.333648e+002,2.557886e+002
4.343291e+002,2.561895e+002
4.352933e+002,2.562043e+002
4.362575e+002,2.559652e+002
4.372218e+002,2.558788e+002
4.381860e+002,2.563786e+002
4.391502e+002,2.577431e+002
4.401145e+002,2.593302e+002
4.410787e+002,2.611059e+002
4.420429e+002,2.631515e+002
4.430072e+002,2.646822e+002
4.439714e+002,2.649186e+002
4.449356e+002,2.634532e+002
4.458999e+002,2.636676e+002
4.468641e+002,2.662350e+002
4.478283e+002,2.686392e+002
4.487926e+002,2.699037e+002
4.497568e+002,2.703943e+002
4.507210e+002,2.711320e+002
4.516853e+002,2.695377e+002
4.526495e+002,2.678681e+002
4.536137e+002,2.678099e+002
4.545780e+002,2.696673e+002
4.555422e+002,2.713331e+002
4.565064e+002,2.710829e+002
4.574707e+002,2.707867e+002
4.584349e+002,2.706332e+002
4.593991e+002,2.704849e+002
4.603634e+002,2.701127e+002
4.613276e+002,2.699664e+002
4.622918e+002,2.704428e+002
4.632561e+002,2.712089e+002
4.642203e+002,2.725583e+002
4.651845e+002,2.739877e+002
4.661488e+002,2.735491e+002
4.671130e+002,2.671266e+002
4.680772e+002,2.621864e+002
4.690415e+002,2.600800e+002
4.700057e+002,2.602531e+002
4.709699e+002,2.613116e+002
4.719342e+002,2.631762e+002
4.728984e+002,2.644529e+002
4.738626e+002,2.641618e+002
4.748269e+002,2.628281e+002
4.757911e+002,2.612402e+002
4.767553e+002,2.601673e+002
4.777196e+002,2.604722e+002
4.786838e+002,2.629575e+002
4.796480e+002,2.665844e+002
4.806123e+002,2.690742e+002
4.815765e+002,2.684295e+002
4.825407e+002,2.648044e+002
4.835050e+002,2.607139e+002
4.844692e+002,2.538674e+002
4.854334e+002,2.486692e+002
4.863977e+002,2.484151e+002
4.873619e+002,2.537332e+002
4.883261e+002,2.568879e+002
4.892904e+002,2.566586e+002
4.902546e+002,2.561342e+002
4.912188e+002,2.561378e+002
4.921831e+002,2.566593e+002
4.931473e+002,2.571986e+002
4.941115e+002,2.576752e+002
4.950758e+002,2.582802e+002
4.960400e+002,2.594557e+002
4.970042e+002,2.615314e+002
4.979685e+002,2.643059e+002
4.989327e+002,2.658363e+002
4.998969e+002,2.643610e+002
5.008612e+002,2.623020e+002
5.018254e+002,2.596493e+002
5.027896e+002,2.565018e+002
5.037539e+002,2.534187e+002
5.047181e+002,2.515240e+002
5.056823e+002,2.506590e+002
5.066466e+002,2.510381e+002
5.076108e+002,2.521114e+002
5.085750e+002,2.527974e+002
5.095393e+002,2.515190e+002
5.105035e+002,2.496417e+002
5.114677e+002,2.504087e+002
5.124320e+002,2.534691e+002
5.133962e+002,2.572876e+002
5.143605e+002,2.600402e+002
5.153247e+002,2.610404e+002
5.162889e+002,2.622270e+002
5.172532e+002,2.646912e+002
5.182174e+002,2.670180e+002
5.191816e+002,2.674134e+002
5.201459e+002,2.648104e+002
5.211101e+002,2.644386e+002
5.220743e+002,2.662220e+002
5.230386e+002,2.695714e+002
5.240028e+002,2.768402e+002
5.249670e+002,2.882310e+002
5.259313e+002,2.992657e+002
5.268955e+002,3.015397e+002
5.278597e+002,3.005615e+002
5.288240e+002,2.996142e+002
5.297882e+002,2.999996e+002
5.307524e+002,3.024178e+002
5.317167e+002,3.087421e+002
5.326809e+002,3.205712e+002
5.336451e+002,3.298378e+002
5.346094e+002,3.335969e+002
5.355736e+002,3.335331e+002
5.365378e+002,3.340002e+002
5.375021e+002,3.367834e+002
5.384663e+002,3.410563e+002
5.394305e+002,3.479633e+002
5.403948e+002,3.549859e+002
5.413590e+002,3.587848e+002
5.423232e+002,3.567479e+002
5.432875e+002,3.544982e+002
5.442517e+002,3.596251e+002
5.452159e+002,3.685813e+002
5.461802e+002,3.773345e+002
5.471444e+002,3.829048e+002
5.481086e+002,3.846459e+002
5.490729e+002,3.830322e+002
5.500371e+002,3.802086e+002
5.510013e+002,3.799037e+002
5.519656e+002,3.846250e+002
5.529298e+002,3.933433e+002
5.538940e+002,3.984187e+002
5.548583e+002,3.935573e+002
5.558225e+002,3.882354e+002
5.567867e+002,3.832739e+002
5.577510e+002,3.794618e+002
5.587152e+002,3.781273e+002
5.596794e+002,3.824435e+002
5.606437e+002,3.868728e+002
5.616079e+002,3.865367e+002
5.625721e+002,3.832124e+002
5.635364e+002,3.798202e+002
5.645006e+002,3.787875e+002
5.654648e+002,3.786512e+002
5.664291e+002,3.744014e+002
5.673933e+002,3.680074e+002
5.683575e+002,3.638269e+002
5.693218e+002,3.644589e+002
5.702860e+002,3.691158e+002
5.712502e+002,3.691934e+002
5.722145e+002,3.613630e+002
5.731787e+002,3.538282e+002
5.741429e+002,3.510404e+002
5.751072e+002,3.527653e+002
5.760714e+002,3.538117e+002
5.770356e+002,3.487925e+002
5.779999e+002,3.447995e+002
5.789641e+002,3.454586e+002
5.799283e+002,3.490167e+002
5.808926e+002,3.518061e+002
5.818568e+002,3.501599e+002
5.828210e+002,3.443452e+002
5.837853e+002,3.391959e+002
5.847495e+002,3.352474e+002
5.857137e+002,3.319705e+002
5.866780e+002,3.288286e+002
5.876422e+002,3.260019e+002
5.886064e+002,3.220943e+002
5.895707e+002,3.145619e+002
5.905349e+002,3.091134e+002
5.914991e+002,3.098612e+002
5.924634e+002,3.162849e+002
5.934276e+002,3.203871e+002
5.943918e+002,3.144267e+002
5.953560e+002,3.073703e+002
5.963203e+002,3.028504e+002
5.972845e+002,3.008322e+002
5.982487e+002,2.993628e+002
5.992130e+002,2.964193e+002
6.001772e+002,2.934526e+002
6.011414e+002,2.918251e+002
6.021057e+002,2.900822e+002
6.030699e+002,2.875824e+002
6.040341e+002,2.846018e+002
6.049984e+002,2.824796e+002
6.059626e+002,2.788955e+002
6.069268e+002,2.746603e+002
6.078911e+002,2.713130e+002
6.088553e+002,2.688917e+002
6.098195e+002,2.665737e+002
6.107838e+002,2.635253e+002
6.117480e+002,2.599965e+002
6.127122e+002,2.570162e+002
6.136765e+002,2.546983e+002
6.146407e+002,2.524727e+002
6.156049e+002,2.494206e+002
6.165692e+002,2.446780e+002
6.175334e+002,2.389099e+002
6.184976e+002,2.348227e+002
6.194619e+002,2.332361e+002
6.204261e+002,2.324929e+002
6.213903e+002,2.297478e+002
6.223546e+002,2.225142e+002
6.233188e+002,2.182635e+002
6.242830e+002,2.188015e+002
6.252473e+002,2.193403e+002
6.262115e+002,2.169335e+002
6.271757e+002,2.114470e+002
6.281400e+002,2.064328e+002
6.291042e+002,2.048394e+002
6.300684e+002,2.045618e+002
6.310327e+002,2.051982e+002
6.319969e+002,2.062634e+002
6.329611e+002,2.070252e+002
6.339254e+002,2.064155e+002
6.348896e+002,2.034692e+002
6.358538e+002,1.988105e+002
6.368181e+002,1.925442e+002
6.377823e+002,1.865259e+002
6.387465e+002,1.829705e+002
6.397108e+002,1.831391e+002
6.406750e+002,1.821477e+002
6.416392e+002,1.773504e+002
6.426035e+002,1.722804e+002
6.435677e+002,1.694283e+002
6.445319e+002,1.690898e+002
6.454962e+002,1.687643e+002
6.464604e+002,1.659659e+002
6.474246e+002,1.632326e+002
6.483889e+002,1.616138e+002
6.493531e+002,1.608334e+002
6.503173e+002,1.605896e+002
6.512816e+002,1.610741e+002
6.522458e+002,1.623872e+002
6.532100e+002,1.604595e+002
6.541743e+002,1.549196e+002
6.551385e+002,1.493969e+002
6.561027e+002,1.467481e+002
6.570670e+002,1.471301e+002
6.580312e+002,1.464706e+002
6.589954e+002,1.433729e+002
6.599597e+002,1.390506e+002
6.609239e+002,1.341996e+002
6.618881e+002,1.296656e+002
6.628524e+002,1.262521e+002
6.638166e+002,1.240646e+002
6.647808e+002,1.235755e+002
6.657451e+002,1.250068e+002
6.667093e+002,1.274270e+002
6.676735e+002,1.296410e+002
6.686378e+002,1.307075e+002
6.696020e+002,1.306462e+002
6.705662e+002,1.291172e+002
6.715305e+002,1.261295e+002
6.724947e+002,1.220346e+002
6.734589e+002,1.169960e+002
6.744232e+002,1.116093e+002
6.753874e+002,1.077466e+002
6.763516e+002,1.062637e+002
6.773159e+002,1.051588e+002
6.782801e+002,1.033537e+002
6.792443e+002,1.008938e+002
6.802086e+002,9.828003e+001
6.811728e+002,9.592877e+001
6.821370e+002,9.374872e+001
6.831013e+002,9.316370e+001
6.840655e+002,9.355197e+001
6.850297e+002,9.239978e+001
6.859940e+002,8.789838e+001
6.869582e+002,8.064606e+001
6.879224e+002,7.673349e+001
6.888867e+002,7.741229e+001
6.898509e+002,7.783286e+001
6.908151e+002,7.813623e+001
6.917794e+002,7.833740e+001
6.927436e+002,7.769534e+001
6.937078e+002,7.507468e+001
6.946721e+002,7.248923e+001
6.956363e+002,6.999759e+001
6.966005e+002,6.870715e+001
6.975648e+002,6.999902e+001
6.985290e+002,7.383224e+001
6.994932e+002,7.701227e+001
7.004575e+002,7.373068e+001
7.014217e+002,6.719611e+001
7.023859e+002,6.127411e+001
7.033502e+002,5.730164e+001
7.043144e+002,5.546567e+001
7.052786e+002,5.573596e+001
7.062429e+002,5.903009e+001
7.072071e+002,6.035687e+001
7.081713e+002,6.005664e+001
7.091356e+002,5.894894e+001
7.100998e+002,5.679697e+001
7.110640e+002,5.295877e+001
7.120283e+002,4.983728e+001
7.129925e+002,4.963297e+001
7.139567e+002,5.008875e+001
7.149210e+002,5.040930e+001
7.158852e+002,5.025040e+001
7.168494e+002,4.944424e+001
7.178137e+002,4.771170e+001
7.187779e+002,4.565039e+001
7.197421e+002,4.460983e+001
7.207064e+002,4.425159e+001
7.216706e+002,4.407785e+001
7.226348e+002,4.394565e+001
7.235991e+002,4.423807e+001
7.245633e+002,4.512296e+001
7.255275e+002,4.625394e+001
7.264918e+002,4.618994e+001
7.274560e+002,4.443054e+001
7.284202e+002,4.199210e+001
7.293845e+002,4.081653e+001
7.303487e+002,4.231107e+001
7.313129e+002,4.382639e+001
7.322772e+002,4.316803e+001
7.332414e+002,4.117526e+001
7.342056e+002,3.909589e+001
7.351699e+002,3.792499e+001
7.361341e+002,3.797278e+001
7.370983e+002,3.970273e+001
7.380626e+002,4.233276e+001
7.390268e+002,4.351105e+001
7.399910e+002,4.277667e+001
7.409553e+002,4.130771e+001
7.419195e+002,4.092828e+001
7.428837e+002,4.148248e+001
7.438480e+002,4.077661e+001
7.448122e+002,3.886313e+001
7.457764e+002,3.746573e+001
7.467407e+002,3.781638e+001
7.477049e+002,4.026035e+001
7.486691e+002,4.415735e+001
7.496334e+002,4.892798e+001
7.505976e+002,5.248730e+001
7.515618e+002,5.320819e+001
7.525261e+002,5.123407e+001
7.534903e+002,4.808420e+001
7.544545e+002,4.583087e+001
7.554188e+002,4.535114e+001
7.563830e+002,4.701624e+001
7.573472e+002,5.035910e+001
7.583115e+002,5.282214e+001
7.592757e+002,5.349530e+001
7.602399e+002,5.335345e+001
7.612042e+002,5.473605e+001
7.621684e+002,5.834149e+001
7.631326e+002,6.116232e+001
7.640969e+002,6.201599e+001
7.650611e+002,6.162280e+001
7.660253e+002,6.152664e+001
7.669896e+002,6.314587e+001
7.679538e+002,6.647644e+001
7.689180e+002,6.889346e+001
7.698823e+002,6.893021e+001
7.708465e+002,6.752640e+001
7.718107e+002,6.603476e+001
7.727750e+002,6.512888e+001
7.737392e+002,6.413904e+001
7.747034e+002,6.197372e+001
7.756677e+002,6.156833e+001
7.766319e+002,6.266959e+001
7.775961e+002,6.470374e+001
7.785604e+002,6.791031e+001
7.795246e+002,7.239661e+001
7.804888e+002,7.586252e+001
7.814531e+002,7.525003e+001
7.824173e+002,7.329248e+001
7.833815e+002,7.174084e+001
7.843458e+002,7.124139e+001
7.853100e+002,7.172015e+001
7.862742e+002,7.272116e+001
7.872385e+002,7.345074e+001
7.882027e+002,7.264349e+001
7.891669e+002,6.974658e+001
7.901312e+002,6.621921e+001
7.910954e+002,6.399887e+001
7.920596e+002,6.367438e+001
7.930239e+002,6.311172e+001
7.939881e+002,5.996628e+001
7.949523e+002,5.766986e+001
7.959166e+002,5.663580e+001
7.968808e+002,5.671936e+001
7.978450e+002,5.818893e+001
7.988093e+002,6.125769e+001
7.997735e+002,6.466806e+001
8.007377e+002,6.567978e+001
8.017020e+002,6.536792e+001
8.026662e+002,6.555026e+001
8.036304e+002,6.675342e+001
8.045947e+002,6.784344e+001
8.055589e+002,6.644757e+001
8.065231e+002,6.036899e+001
8.074874e+002,5.675150e+001
8.084516e+002,5.736749e+001
8.094158e+002,5.830746e+001
8.103801e+002,5.808054e+001
8.113443e+002,5.717700e+001
8.123085e+002,5.641693e+001
8.132728e+002,5.405573e+001
8.142370e+002,5.152817e+001
8.152012e+002,4.975519e+001
8.161655e+002,4.791290e+001
8.171297e+002,4.568420e+001
8.180939e+002,4.356714e+001
8.190582e+002,4.255728e+001
8.200224e+002,4.118869e+001
8.209866e+002,3.830246e+001
8.219509e+002,3.707205e+001
8.229151e+002,3.944360e+001
8.238793e+002,4.329117e+001
8.248436e+002,4.410483e+001
8.258078e+002,4.060410e+001
8.267720e+002,3.744751e+001
8.277363e+002,3.517880e+001
8.287005e+002,3.298337e+001
8.296647e+002,3.089493e+001
8.306290e+002,2.921936e+001
8.315932e+002,2.820694e+001
8.325574e+002,2.811679e+001
8.335217e+002,2.811227e+001
8.344859e+002,2.627176e+001
8.354501e+002,2.248633e+001
8.364144e+002,1.833044e+001
8.373786e+002,1.538287e+001
8.383428e+002,1.398407e+001
8.393071e+002,1.328159e+001
8.402713e+002,1.431146e+001
8.412355e+002,1.477249e+001
8.421998e+002,1.332907e+001
8.431640e+002,1.116522e+001
8.441282e+002,1.015341e+001
8.450925e+002,1.094180e+001
8.460567e+002,1.231058e+001
8.470209e+002,1.398605e+001
8.479852e+002,1.523660e+001
8.489494e+002,1.553314e+001
8.499136e+002,1.504712e+001
8.508779e+002,1.438620e+001
8.518421e+002,1.412573e+001
8.528063e+002,1.411029e+001
8.537706e+002,1.398236e+001
8.547348e+002,1.389417e+001
8.556990e+002,1.375217e+001
8.566633e+002,1.328564e+001
8.576275e+002,1.225015e+001
8.585917e+002,1.055618e+001
8.595560e+002,7.277283e+000
8.605202e+002,5.935577e+000
8.614844e+002,8.905548e+000
8.624487e+002,1.367087e+001
8.634129e+002,1.744122e+001
8.643771e+002,1.860715e+001
8.653414e+002,1.702090e+001
8.663056e+002,1.223990e+001
8.672698e+002,7.456482e+000
8.682341e+002,6.621979e+000
8.691983e+002,9.524475e+000
8.701625e+002,1.328015e+001
8.711268e+002,1.477121e+001
8.720910e+002,1.328687e+001
8.730552e+002,1.089670e+001
8.740195e+002,9.547821e+000
8.749837e+002,1.021219e+001
8.759479e+002,1.358765e+001
8.769122e+002,1.744727e+001
8.778764e+002,1.773126e+001
8.788406e+002,1.153119e+001
8.798049e+002,4.683929e+000
8.807691e+002,4.331238e+000
8.817333e+002,7.198425e+000
8.826976e+002,9.669189e+000
8.836618e+002,1.044113e+001
8.846260e+002,9.926514e+000
8.855903e+002,8.661224e+000
8.865545e+002,6.011810e+000
8.875187e+002,5.880859e+000
8.884830e+002,1.009995e+001
8.894472e+002,1.455136e+001
8.904114e+002,1.700226e+001
8.913757e+002,1.793008e+001
8.923399e+002,1.922552e+001
8.933041e+002,2.131717e+001
8.942684e+002,2.157486e+001
8.952326e+002,1.819931e+001
8.961968e+002,1.393512e+001
8.971611e+002,1.225278e+001
8.981253e+002,1.444144e+001
8.990895e+002,1.830115e+001
9.000538e+002,1.974469e+001
9.010180e+002,1.885892e+001
9.019822e+002,1.901675e+001
9.029465e+002,2.069626e+001
9.039107e+002,2.309747e+001
9.048749e+002,2.570285e+001
9.058392e+002,2.837775e+001
9.068034e+002,2.926385e+001
9.077676e+002,2.586557e+001
9.087319e+002,2.402484e+001
9.096961e+002,2.692355e+001
9.106603e+002,3.186649e+001
9.116246e+002,3.445523e+001
9.125888e+002,3.253082e+001
9.135530e+002,2.942358e+001
9.145173e+002,2.933768e+001
9.154815e+002,3.045721e+001
9.164457e+002,3.210858e+001
9.174100e+002,3.470554e+001
9.183742e+002,3.722684e+001
9.193384e+002,3.770804e+001
9.203027e+002,3.554108e+001
9.212669e+002,3.632474e+001
9.222311e+002,3.988101e+001
9.231954e+002,4.240536e+001
9.241596e+002,4.486520e+001
9.251238e+002,4.720544e+001
9.260881e+002,4.773663e+001
9.270523e+002,4.498309e+001
9.280165e+002,4.321240e+001
9.289808e+002,4.682309e+001
9.299450e+002,5.258984e+001
9.309092e+002,5.814337e+001
9.318735e+002,6.256607e+001
9.328377e+002,6.585263e+001
9.338019e+002,6.821014e+001
9.347662e+002,6.956488e+001
9.357304e+002,6.845117e+001
9.366946e+002,6.459872e+001
9.376589e+002,6.255383e+001
9.386231e+002,6.299603e+001
9.395873e+002,6.502985e+001
9.405516e+002,6.850061e+001
9.415158e+002,7.535321e+001
9.424800e+002,8.012497e+001
9.434443e+002,7.841507e+001
9.444085e+002,7.625452e+001
9.453727e+002,7.819965e+001
9.463370e+002,8.398059e+001
9.473012e+002,8.985034e+001
9.482654e+002,9.203534e+001
9.492297e+002,9.056216e+001
9.501939e+002,8.853973e+001
9.511581e+002,8.716638e+001
9.521224e+002,8.784326e+001
9.530866e+002,9.186710e+001
9.540508e+002,9.724548e+001
9.550151e+002,9.943665e+001
9.559793e+002,9.664886e+001
9.569435e+002,9.248431e+001
9.579078e+002,8.881625e+001
9.588720e+002,8.693045e+001
9.598362e+002,8.660391e+001
9.608005e+002,8.762350e+001
9.617647e+002,9.043622e+001
9.627289e+002,9.582916e+001
9.636932e+002,1.020664e+002
9.646574e+002,1.061337e+002
9.656216e+002,1.077885e+002
9.665859e+002,1.068850e+002
9.675501e+002,1.036056e+002
9.685143e+002,9.972980e+001
9.694786e+002,9.797537e+001
9.704428e+002,9.879462e+001
9.714070e+002,1.015457e+002
9.723713e+002,1.048508e+002
9.733355e+002,1.075136e+002
9.742997e+002,1.105382e+002
9.752640e+002,1.142952e+002
9.762282e+002,1.178672e+002
9.771924e+002,1.197967e+002
9.781567e+002,1.207387e+002
9.791209e+002,1.223721e+002
9.800851e+002,1.245461e+002
9.810494e+002,1.275543e+002
9.820136e+002,1.316854e+002
9.829778e+002,1.356609e+002
9.839421e+002,1.367427e+002
9.849063e+002,1.330782e+002
9.858705e+002,1.302134e+002
9.868348e+002,1.308131e+002
9.877990e+002,1.327004e+002
9.887632e+002,1.347151e+002
9.897275e+002,1.370527e+002
9.906917e+002,1.403799e+002
9.916559e+002,1.442978e+002
9.926202e+002,1.456478e+002
9.935844e+002,1.426181e+002
9.945486e+002,1.387704e+002
9.955129e+002,1.363350e+002
9.964771e+002,1.358655e+002
9.974413e+002,1.367537e+002
9.984056e+002,1.379818e+002
9.993698e+002,1.389626e+002
1.000334e+003,1.401757e+002
1.001298e+003,1.432742e+002
1.002263e+003,1.447654e+002
1.003227e+003,1.422770e+002
1.004191e+003,1.389108e+002
1.005155e+003,1.386454e+002
1.006119e+003,1.419248e+002
1.007084e+003,1.443812e+002
1.008048e+003,1.432766e+002
1.009012e+003,1.430414e+002
1.009976e+003,1.457826e+002
1.010941e+003,1.499083e+002
1.011905e+003,1.529576e+002
1.012869e+003,1.536584e+002
1.013833e+003,1.528444e+002
1.014798e+003,1.528579e+002
1.015762e+003,1.555816e+002
1.016726e+003,1.577837e+002
1.017690e+003,1.569098e+002
1.018654e+003,1.574231e+002
1.019619e+003,1.631584e+002
1.020583e+003,1.729264e+002
1.021547e+003,1.808014e+002
1.022511e+003,1.842062e+002
1.023476e+003,1.860148e+002
1.024440e+003,1.891362e+002
1.025404e+003,1.923198e+002
1.026368e+003,1.932430e+002
1.027333e+003,1.918530e+002
1.028297e+003,1.909189e+002
1.029261e+003,1.936960e+002
1.030225e+003,1.990546e+002
1.031190e+003,2.021132e+002
1.032154e+003,2.042379e+002
1.033118e+003,2.072249e+002
1.034082e+003,2.105298e+002
1.035047e+003,2.143356e+002
1.036011e+003,2.206673e+002
1.036975e+003,2.311361e+002
1.037939e+003,2.372731e+002
1.038903e+003,2.342073e+002
1.039868e+003,2.312457e+002
1.040832e+003,2.319285e+002
1.041796e+003,2.359462e+002
1.042760e+003,2.423880e+002
1.043725e+003,2.507281e+002
1.044689e+003,2.587625e+002
1.045653e+003,2.607845e+002
1.046617e+003,2.570767e+002
1.047582e+003,2.554236e+002
1.048546e+003,2.588398e+002
1.049510e+003,2.646897e+002
1.050474e+003,2.693867e+002
1.051438e+003,2.722075e+002
1.052403e+003,2.754485e+002
1.053367e+003,2.789190e+002
1.054331e+003,2.829060e+002
1.055295e+003,2.890140e+002
1.056260e+003,2.957245e+002
1.057224e+003,3.013760e+002
1.058188e+003,3.059029e+002
1.059152e+003,3.108214e+002
1.060117e+003,3.176321e+002
1.061081e+003,3.256325e+002
1.062045e+003,3.320522e+002
1.063009e+003,3.358678e+002
1.063974e+003,3.383921e+002
1.064938e+003,3.410016e+002
1.065902e+003,3.446107e+002
1.066866e+003,3.493135e+002
1.067830e+003,3.541902e+002
1.068795e+003,3.588418e+002
1.069759e+003,3.656977e+002
1.070723e+003,3.711534e+002
1.071687e+003,3.731923e+002
1.072652e+003,3.738152e+002
1.073616e+003,3.751091e+002
1.074580e+003,3.774867e+002
1.075544e+003,3.808334e+002
1.076509e+003,3.871465e+002
1.077473e+003,3.962151e+002
1.078437e+003,4.032347e+002
1.079401e+003,4.080958e+002
1.080365e+003,4.114062e+002
1.081330e+003,4.125710e+002
1.082294e+003,4.116276e+002
1.083258e+003,4.107190e+002
1.084222e+003,4.084590e+002
1.085187e+003,4.100151e+002
1.086151e+003,4.208191e+002
1.087115e+003,4.319219e+002
1.088079e+003,4.359468e+002
1.089043e+003,4.334997e+002
1.090008e+003,4.301638e+002
1.090972e+003,4.300741e+002
1.091936e+003,4.319717e+002
1.092900e+003,4.328340e+002
1.093865e+003,4.326759e+002
1.094829e+003,4.312813e+002
1.095793e+003,4.283257e+002
1.096757e+003,4.259532e+002
1.097722e+003,4.259641e+002
1.098686e+003,4.275143e+002
1.099650e+003,4.285463e+002
1.100614e+003,4.323883e+002
1.101578e+003,4.339612e+002
1.102543e+003,4.285143e+002
1.103507e+003,4.214553e+002
1.104471e+003,4.183397e+002
1.105435e+003,4.188964e+002
1.106400e+003,4.178107e+002
1.107364e+003,4.108711e+002
1.108328e+003,4.009366e+002
1.109292e+003,3.956241e+002
1.110257e+003,3.951744e+002
1.111221e+003,3.954492e+002
1.112185e+003,3.937145e+002
1.113149e+003,3.901243e+002
1.114114e+003,3.865683e+002
1.115078e+003,3.840122e+002
1.116042e+003,3.795808e+002
1.117006e+003,3.718527e+002
1.117970e+003,3.635224e+002
1.118935e+003,3.528619e+002
1.119899e+003,3.420796e+002
1.120863e+003,3.353329e+002
1.121827e+003,3.337491e+002
1.122792e+003,3.336038e+002
1.123756e+003,3.295792e+002
1.124720e+003,3.210828e+002
1.125684e+003,3.135128e+002
1.126649e+003,3.088124e+002
1.127613e+003,3.046362e+002
1.128577e+003,2.993078e+002
1.129541e+003,2.936619e+002
1.130505e+003,2.895982e+002
1.131470e+003,2.871983e+002
1.132434e+003,2.827114e+002
1.133398e+003,2.739590e+002
1.134362e+003,2.656109e+002
1.135327e+003,2.586161e+002
1.136291e+003,2.528842e+002
1.137255e+003,2.485825e+002
1.138219e+003,2.458361e+002
1.139184e+003,2.444417e+002
1.140148e+003,2.439130e+002
1.141112e+003,2.432690e+002
1.142076e+003,2.394967e+002
1.143041e+003,2.332795e+002
1.144005e+003,2.274990e+002
1.144969e+003,2.229718e+002
1.145933e+003,2.194267e+002
1.146897e+003,2.166724e+002
1.147862e+003,2.142639e+002
1.148826e+003,2.097967e+002
1.149790e+003,2.014440e+002
1.150754e+003,1.928907e+002
1.151719e+003,1.856866e+002
1.152683e+003,1.800553e+002
1.153647e+003,1.761232e+002
1.154611e+003,1.739475e+002
1.155576e+003,1.732122e+002
1.156540e+003,1.731299e+002
1.157504e+003,1.726760e+002
1.158468e+003,1.695585e+002
1.159432e+003,1.635510e+002
1.160397e+003,1.583133e+002
1.161361e+003,1.563110e+002
1.162325e+003,1.556757e+002
1.163289e+003,1.528179e+002
1.164254e+003,1.468966e+002
1.165218e+003,1.420187e+002
1.166182e+003,1.418368e+002
1.167146e+003,1.424871e+002
1.168111e+003,1.404352e+002
1.169075e+003,1.361537e+002
1.170039e+003,1.301141e+002
1.171003e+003,1.228491e+002
1.171968e+003,1.163586e+002
1.172932e+003,1.137113e+002
1.173896e+003,1.154765e+002
1.174860e+003,1.153826e+002
1.175824e+003,1.103413e+002
1.176789e+003,1.060492e+002
1.177753e+003,1.035239e+002
1.178717e+003,1.022482e+002
1.179681e+003,1.026151e+002
1.180646e+003,1.038134e+002
1.181610e+003,1.024442e+002
1.182574e+003,9.586505e+001
1.183538e+003,8.811145e+001
1.184503e+003,8.464539e+001
1.185467e+003,8.390472e+001
1.186431e+003,8.344775e+001
1.187395e+003,8.229004e+001
1.188359e+003,7.992914e+001
1.189324e+003,7.610919e+001
1.190288e+003,7.169641e+001
1.191252e+003,6.957880e+001
1.192216e+003,7.064337e+001
1.193181e+003,7.142834e+001
1.194145e+003,7.226886e+001
1.195109e+003,7.075311e+001
1.196073e+003,6.435175e+001
1.197038e+003,5.569739e+001
1.198002e+003,4.997260e+001
1.198966e+003,4.948358e+001
1.199930e+003,5.158667e+001
1.200895e+003,5.345746e+001
1.201859e+003,5.479449e+001
1.202823e+003,5.434375e+001
1.203787e+003,5.162677e+001
1.204751e+003,4.837579e+001
1.205716e+003,4.541089e+001
1.206680e+003,4.304181e+001
1.207644e+003,4.226727e+001
1.208608e+003,4.373425e+001
1.209573e+003,4.333813e+001
1.210537e+003,3.837506e+001
1.211501e+003,3.492322e+001
1.212465e+003,3.722827e+001
1.213430e+003,4.215161e+001
1.214394e+003,4.364844e+001
1.215358e+003,3.927753e+001
1.216322e+003,3.256604e+001
1.217286e+003,2.916150e+001
1.218251e+003,2.921313e+001
1.219215e+003,2.694244e+001
1.220179e+003,2.205640e+001
1.221143e+003,1.950568e+001
1.222108e+003,2.199243e+001
1.223072e+003,2.611029e+001
1.224036e+003,2.725757e+001
1.225000e+003,2.500293e+001
1.225965e+003,2.333417e+001
1.226929e+003,2.404468e+001
1.227893e+003,2.362067e+001
1.228857e+003,2.158655e+001
1.229822e+003,2.045251e+001
1.230786e+003,2.180591e+001
1.231750e+003,2.453943e+001
1.232714e+003,2.530597e+001
1.233678e+003,2.139636e+001
1.234643e+003,1.421716e+001
1.235607e+003,1.017773e+001
1.236571e+003,1.286816e+001
1.237535e+003,1.418274e+001
1.238500e+003,1.100037e+001
1.239464e+003,8.711609e+000
1.240428e+003,1.001880e+001
1.241392e+003,1.295099e+001
1.242357e+003,1.524652e+001
1.243321e+003,1.697296e+001
1.244285e+003,1.828467e+001
1.245249e+003,1.846021e+001
1.246214e+003,1.826508e+001
1.247178e+003,1.799194e+001
1.248142e+003,1.707062e+001
1.249106e+003,1.676270e+001
1.250070e+003,1.837598e+001
1.251035e+003,2.064752e+001
1.251999e+003,2.148535e+001
1.252963e+003,2.077771e+001
1.253927e+003,1.826984e+001
1.254892e+003,1.159869e+001
1.255856e+003,7.744812e+000
1.256820e+003,9.551758e+000
1.257784e+003,1.264624e+001
1.258749e+003,1.278595e+001
1.259713e+003,1.110413e+001
1.260677e+003,1.302551e+001
1.261641e+003,2.154285e+001
1.262605e+003,3.098431e+001
1.263570e+003,3.094434e+001
1.264534e+003,2.125385e+001
1.265498e+003,1.559967e+001
1.266462e+003,1.533618e+001
1.267427e+003,1.642859e+001
1.268391e+003,1.702063e+001
1.269355e+003,1.659747e+001
1.270319e+003,1.506757e+001
1.271284e+003,1.297198e+001
1.272248e+003,1.169916e+001
1.273212e+003,1.315228e+001
1.274176e+003,1.578760e+001
1.275141e+003,1.647070e+001
1.276105e+003,1.451465e+001
1.277069e+003,9.761780e+000
1.278033e+003,3.643127e+000
1.278997e+003,0.000000e+000
1.279962e+003,2.739624e+000
1.280926e+003,1.132593e+001
1.281890e+003,1.852557e+001
1.282854e+003,2.110089e+001
1.283819e+003,2.072223e+001
1.284783e+003,1.680267e+001
1.285747e+003,1.317340e+001
1.286711e+003,1.281665e+001
1.287676e+003,1.478888e+001
1.288640e+003,1.643445e+001
1.289604e+003,1.657269e+001
1.290568e+003,1.622583e+001
1.291532e+003,1.655719e+001
1.292497e+003,1.680194e+001
1.293461e+003,1.534894e+001
1.294425e+003,1.312708e+001
1.295389e+003,1.266077e+001
1.296354e+003,1.489600e+001
1.297318e+003,1.725690e+001
1.298282e+003,1.683124e+001
1.299246e+003,1.391394e+001
1.300211e+003,1.164697e+001
1.301175e+003,1.127527e+001
1.302139e+003,1.201343e+001
1.303103e+003,1.222675e+001
1.304068e+003,1.210339e+001
1.305032e+003,1.270099e+001
1.305996e+003,1.361041e+001
1.306960e+003,1.376514e+001
1.307924e+003,1.315991e+001
1.308889e+003,1.303577e+001
1.309853e+003,1.405902e+001
1.310817e+003,1.460284e+001
1.311781e+003,1.458313e+001
1.312746e+003,1.859509e+001
1.313710e+003,2.114734e+001
1.314674e+003,1.890021e+001
1.315638e+003,1.630493e+001
1.316603e+003,1.655072e+001
1.317567e+003,1.774902e+001
1.318531e+003,1.625684e+001
1.319495e+003,1.220734e+001
1.320459e+003,9.912415e+000
1.321424e+003,1.156293e+001
1.322388e+003,1.444666e+001
1.323352e+003,1.611426e+001
1.324316e+003,1.679169e+001
1.325281e+003,1.713855e+001
1.326245e+003,1.741138e+001
1.327209e+003,1.738562e+001
1.328173e+003,1.660968e+001
1.329138e+003,1.506598e+001
1.330102e+003,1.380743e+001
1.331066e+003,1.333539e+001
1.332030e+003,1.431427e+001
1.332995e+003,1.724188e+001
1.333959e+003,1.930878e+001
1.334923e+003,1.779041e+001
1.335887e+003,1.413318e+001
1.336851e+003,1.197333e+001
1.337816e+003,1.323865e+001
1.338780e+003,1.652100e+001
1.339744e+003,1.916827e+001
1.340708e+003,2.018842e+001
1.341673e+003,1.827325e+001
1.342637e+003,1.132019e+001
1.343601e+003,6.983032e+000
1.344565e+003,8.612610e+000
1.345530e+003,1.234534e+001
1.346494e+003,1.586664e+001
1.347458e+003,1.858032e+001
1.348422e+003,1.926666e+001
1.349386e+003,1.694293e+001
1.350351e+003,1.377032e+001
1.351315e+003,1.224164e+001
1.352279e+003,1.208093e+001
1.353243e+003,1.174567e+001
1.354208e+003,1.169427e+001
1.355172e+003,1.326636e+001
1.356136e+003,1.652759e+001
1.357100e+003,1.941266e+001
1.358065e+003,2.037866e+001
1.359029e+003,1.990717e+001
1.359993e+003,1.858020e+001
1.360957e+003,1.619330e+001
1.361922e+003,1.461591e+001
1.362886e+003,1.312225e+001
1.363850e+003,1.350800e+001
1.364814e+003,1.878363e+001
1.365778e+003,2.466644e+001
1.366743e+003,2.424762e+001
1.367707e+003,1.681824e+001
1.368671e+003,9.455078e+000
1.369635e+003,9.563110e+000
1.370600e+003,1.592505e+001
1.371564e+003,2.007202e+001
1.372528e+003,1.962445e+001
1.373492e+003,1.984741e+001
1.374457e+003,2.029126e+001
1.375421e+003,2.080719e+001
1.376385e+003,2.340741e+001
1.377349e+003,2.599731e+001
1.378313e+003,2.357861e+001
1.379278e+003,1.617102e+001
1.380242e+003,1.180078e+001
1.381206e+003,1.676636e+001
1.382170e+003,2.489838e+001
1.383135e+003,2.534546e+001
1.384099e+003,2.085278e+001
1.385063e+003,1.854645e+001
1.386027e+003,1.820874e+001
1.386992e+003,1.785950e+001
1.387956e+003,1.793610e+001
1.388920e+003,1.882416e+001
1.389884e+003,2.005688e+001
1.390849e+003,2.179852e+001
1.391813e+003,2.326025e+001
1.392777e+003,2.214087e+001
1.393741e+003,1.995410e+001
1.394705e+003,1.985974e+001
1.395670e+003,2.136737e+001
1.396634e+003,2.279962e+001
1.397598e+003,2.290674e+001
1.398562e+003,2.125549e+001
1.399527e+003,1.844122e+001
1.400491e+003,1.597095e+001
1.401455e+003,1.526514e+001
1.402419e+003,1.622479e+001
1.403384e+003,1.803369e+001
1.404348e+003,2.101941e+001
1.405312e+003,2.073163e+001
1.406276e+003,1.787927e+001
1.407240e+003,1.642700e+001
1.408205e+003,1.582666e+001
1.409169e+003,1.557202e+001
1.410133e+003,1.691858e+001
1.411097e+003,1.988013e+001
1.412062e+003,2.166571e+001
1.413026e+003,2.052222e+001
1.413990e+003,1.893152e+001
1.414954e+003,2.013593e+001
1.415919e+003,2.326941e+001
1.416883e+003,2.683667e+001
1.417847e+003,3.153229e+001
1.418811e+003,3.411694e+001
1.419776e+003,3.268945e+001
1.420740e+003,2.909479e+001
1.421704e+003,2.537653e+001
1.422668e+003,2.214160e+001
1.423632e+003,2.077081e+001
1.424597e+003,2.206342e+001
1.425561e+003,2.394122e+001
1.426525e+003,2.427655e+001
1.427489e+003,2.420752e+001
1.428454e+003,2.529950e+001
1.429418e+003,2.747943e+001
1.430382e+003,2.918903e+001
1.431346e+003,2.896570e+001
1.432311e+003,2.675739e+001
1.433275e+003,2.382043e+001
1.434239e+003,2.174982e+001
1.435203e+003,2.119775e+001
1.436167e+003,2.043329e+001
1.437132e+003,2.086420e+001
1.438096e+003,2.426593e+001
1.439060e+003,2.696698e+001
1.440024e+003,2.802240e+001
1.440989e+003,2.847150e+001
1.441953e+003,2.830267e+001
1.442917e+003,2.719745e+001
1.443881e+003,2.638861e+001
1.444846e+003,2.797192e+001
1.445810e+003,3.167120e+001
1.446774e+003,3.352325e+001
1.447738e+003,3.203204e+001
1.448703e+003,2.910760e+001
1.449667e+003,2.292059e+001
1.450631e+003,1.851422e+001
1.451595e+003,1.859338e+001
1.452559e+003,2.104230e+001
1.453524e+003,2.392920e+001
1.454488e+003,2.661115e+001
1.455452e+003,2.890686e+001
1.456416e+003,3.061090e+001
1.457381e+003,3.176105e+001
1.458345e+003,3.267017e+001
1.459309e+003,3.291339e+001
1.460273e+003,3.143726e+001
1.461238e+003,2.887848e+001
1.462202e+003,2.899249e+001
1.463166e+003,3.490894e+001
1.464130e+003,4.003284e+001
1.465094e+003,3.776190e+001
1.466059e+003,3.100525e+001
1.467023e+003,2.661127e+001
1.467987e+003,2.623120e+001
1.468951e+003,2.644171e+001
1.469916e+003,2.561926e+001
1.470880e+003,2.646332e+001
1.471844e+003,3.128607e+001
1.472808e+003,3.662848e+001
1.473773e+003,3.888721e+001
1.474737e+003,3.884338e+001
1.475701e+003,3.774164e+001
1.476665e+003,3.582104e+001
1.477630e+003,3.429443e+001
1.478594e+003,3.331586e+001
1.479558e+003,3.223267e+001
1.480522e+003,3.293060e+001
1.481486e+003,3.740125e+001
1.482451e+003,3.925854e+001
1.483415e+003,3.212183e+001
1.484379e+003,2.468213e+001
1.485343e+003,2.504565e+001
1.486308e+003,3.010919e+001
1.487272e+003,3.397736e+001
1.488236e+003,3.523090e+001
1.489200e+003,3.568921e+001
1.490165e+003,3.642505e+001
1.491129e+003,3.683417e+001
1.492093e+003,3.614490e+001
1.493057e+003,3.470111e+001
1.494021e+003,3.509534e+001
1.494986e+003,3.939478e+001
1.495950e+003,4.290259e+001
1.496914e+003,4.257550e+001
1.497878e+003,4.101605e+001
1.498843e+003,3.929761e+001
1.499807e+003,3.852075e+001
1.500771e+003,4.058661e+001
1.501735e+003,4.543323e+001
1.502700e+003,4.995966e+001
1.503664e+003,5.114307e+001
1.504628e+003,4.953375e+001
1.505592e+003,4.794275e+001
1.506557e+003,4.728693e+001
1.507521e+003,4.746747e+001
1.508485e+003,4.861359e+001
1.509449e+003,4.879712e+001
1.510413e+003,4.589270e+001
1.511378e+003,4.282733e+001
1.512342e+003,4.312152e+001
1.513306e+003,4.555243e+001
1.514270e+003,4.615942e+001
1.515235e+003,4.381219e+001
1.516199e+003,4.201331e+001
1.517163e+003,4.461108e+001
1.518127e+003,4.984985e+001
1.519092e+003,5.078778e+001
1.520056e+003,4.534662e+001
1.521020e+003,4.147504e+001
1.521984e+003,3.872278e+001
1.522948e+003,3.776489e+001
1.523913e+003,4.105768e+001
1.524877e+003,4.586194e+001
1.525841e+003,4.992896e+001
1.526805e+003,5.239563e+001
1.527770e+003,5.168756e+001
1.528734e+003,4.706488e+001
1.529698e+003,4.117792e+001
1.530662e+003,3.698297e+001
1.531627e+003,3.516711e+001
1.532591e+003,3.679248e+001
1.533555e+003,4.260474e+001
1.534519e+003,4.403748e+001
1.535484e+003,3.732715e+001
1.536448e+003,3.229974e+001
1.537412e+003,3.263837e+001
1.538376e+003,3.509552e+001
1.539340e+003,3.796619e+001
1.540305e+003,4.086682e+001
1.541269e+003,4.196277e+001
1.542233e+003,4.006635e+001
1.543197e+003,3.638763e+001
1.544162e+003,3.152747e+001
1.545126e+003,2.699194e+001
1.546090e+003,2.817798e+001
1.547054e+003,3.557141e+001
1.548019e+003,3.988098e+001
1.548983e+003,3.623309e+001
1.549947e+003,3.171008e+001
1.550911e+003,3.024567e+001
1.551875e+003,3.019641e+001
1.552840e+003,3.088666e+001
1.553804e+003,3.280499e+001
1.554768e+003,3.421472e+001
1.555732e+003,3.356799e+001
1.556697e+003,3.282990e+001
1.557661e+003,3.396661e+001
1.558625e+003,3.586725e+001
1.559589e+003,3.694263e+001
1.560554e+003,3.748517e+001
1.561518e+003,3.786145e+001
1.562482e+003,3.783868e+001
1.563446e+003,3.769135e+001
1.564411e+003,3.833142e+001
1.565375e+003,3.923499e+001
1.566339e+003,3.932001e+001
1.567303e+003,3.855011e+001
1.568267e+003,3.729132e+001
1.569232e+003,3.544220e+001
1.570196e+003,3.375507e+001
1.571160e+003,3.225726e+001
1.572124e+003,3.134583e+001
1.573089e+003,3.359344e+001
1.574053e+003,3.730847e+001
1.575017e+003,3.791962e+001
1.575981e+003,3.487567e+001
1.576946e+003,3.205786e+001
1.577910e+003,3.069818e+001
1.578874e+003,2.932507e+001
1.579838e+003,2.744617e+001
1.580802e+003,2.678931e+001
1.581767e+003,2.879095e+001
1.582731e+003,3.237158e+001
1.583695e+003,3.575903e+001
1.584659e+003,3.931952e+001
1.585624e+003,4.092688e+001
1.586588e+003,3.909802e+001
1.587552e+003,3.713757e+001
1.588516e+003,3.729395e+001
1.589481e+003,3.890332e+001
1.590445e+003,3.999951e+001
1.591409e+003,3.934656e+001
1.592373e+003,3.873218e+001
1.593338e+003,4.137769e+001
1.594302e+003,4.592938e+001
1.595266e+003,4.799658e+001
1.596230e+003,4.768213e+001
1.597194e+003,4.614484e+001
1.598159e+003,4.178436e+001
1.599123e+003,3.902087e+001
1.600087e+003,4.355701e+001
1.601051e+003,4.852240e+001
1.602016e+003,4.602258e+001
1.602980e+003,3.895215e+001
1.603944e+003,3.545361e+001
1.604908e+003,3.797363e+001
1.605873e+003,4.161499e+001
1.606837e+003,4.310950e+001
1.607801e+003,4.335394e+001
1.608765e+003,4.235089e+001
1.609729e+003,3.936401e+001
1.610694e+003,3.759387e+001
1.611658e+003,3.847076e+001
1.612622e+003,3.929053e+001
1.613586e+003,3.990112e+001
1.614551e+003,4.105597e+001
1.615515e+003,4.152710e+001
1.616479e+003,4.121838e+001
1.617443e+003,4.148798e+001
1.618408e+003,4.231628e+001
1.619372e+003,4.191388e+001
1.620336e+003,3.969897e+001
1.621300e+003,3.740649e+001
1.622265e+003,3.619958e+001
1.623229e+003,3.575439e+001
1.624193e+003,3.572113e+001
1.625157e+003,3.586670e+001
1.626121e+003,3.656165e+001
1.627086e+003,3.861053e+001
1.628050e+003,4.038293e+001
1.629014e+003,3.992432e+001
1.629978e+003,3.845111e+001
1.630943e+003,3.757080e+001
1.631907e+003,3.718481e+001
1.632871e+003,3.672589e+001
1.633835e+003,3.661578e+001
1.634800e+003,3.804272e+001
1.635764e+003,4.266486e+001
1.636728e+003,4.817401e+001
1.637692e+003,4.948590e+001
1.638656e+003,4.679413e+001
1.639621e+003,4.627637e+001
1.640585e+003,4.903632e+001
1.641549e+003,4.980170e+001
1.642513e+003,4.707007e+001
1.643478e+003,4.514929e+001
1.644442e+003,4.723322e+001
1.645406e+003,5.033289e+001
1.646370e+003,5.033124e+001
1.647335e+003,4.734692e+001
1.648299e+003,4.549994e+001
1.649263e+003,4.668451e+001
1.650227e+003,4.850714e+001
1.651192e+003,4.960223e+001
1.652156e+003,4.986078e+001
1.653120e+003,4.856598e+001
1.654084e+003,4.612836e+001
1.655048e+003,4.451459e+001
1.656013e+003,4.396625e+001
1.656977e+003,4.441943e+001
1.657941e+003,4.550726e+001
1.658905e+003,4.620331e+001
1.659870e+003,4.757501e+001
1.660834e+003,4.949139e+001
1.661798e+003,4.850726e+001
1.662762e+003,4.352301e+001
1.663727e+003,4.035657e+001
1.664691e+003,4.311646e+001
1.665655e+003,4.627148e+001
1.666619e+003,4.438068e+001
1.667583e+003,4.060413e+001
1.668548e+003,4.043463e+001
1.669512e+003,4.323785e+001
1.670476e+003,4.565930e+001
1.671440e+003,4.778131e+001
1.672405e+003,4.885986e+001
1.673369e+003,4.671539e+001
1.674333e+003,4.306073e+001
1.675297e+003,4.179565e+001
1.676262e+003,4.246008e+001
1.677226e+003,4.301111e+001
1.678190e+003,4.309943e+001
1.679154e+003,4.369354e+001
1.680119e+003,4.615479e+001
1.681083e+003,4.793268e+001
1.682047e+003,4.683606e+001
1.683011e+003,4.421796e+001
1.683975e+003,4.222260e+001
1.684940e+003,4.156549e+001
1.685904e+003,4.241016e+001
1.686868e+003,4.455322e+001
1.687832e+003,4.728656e+001
1.688797e+003,4.955145e+001
1.689761e+003,5.056250e+001
1.690725e+003,5.088733e+001
1.691689e+003,5.133350e+001
1.692654e+003,5.093719e+001
1.693618e+003,4.964001e+001
1.694582e+003,5.013867e+001
1.695546e+003,5.292041e+001
1.696510e+003,5.435345e+001
1.697475e+003,5.233813e+001
1.698439e+003,4.915216e+001
1.699403e+003,4.776782e+001
1.700367e+003,4.845111e+001
1.701332e+003,4.965259e+001
1.702296e+003,5.044641e+001
1.703260e+003,5.095209e+001
1.704224e+003,5.099426e+001
1.705189e+003,5.057025e+001
1.706153e+003,5.217517e+001
1.707117e+003,5.686523e+001
1.708081e+003,5.692377e+001
1.709046e+003,5.153912e+001
1.710010e+003,4.996649e+001
1.710974e+003,5.325195e+001
1.711938e+003,5.667358e+001
1.712902e+003,5.745764e+001
1.713867e+003,5.599207e+001
1.714831e+003,5.396295e+001
1.715795e+003,5.293579e+001
1.716759e+003,5.378546e+001
1.717724e+003,5.637018e+001
1.718688e+003,5.949799e+001
1.719652e+003,6.180432e+001
1.720616e+003,6.287573e+001
1.721581e+003,6.263843e+001
1.722545e+003,6.095886e+001
1.723509e+003,6.101215e+001
1.724473e+003,6.520251e+001
1.725438e+003,6.771674e+001
1.726402e+003,6.366479e+001
1.727366e+003,5.960175e+001
1.728330e+003,6.078455e+001
1.729294e+003,6.414154e+001
1.730259e+003,6.522272e+001
1.731223e+003,6.398999e+001
1.732187e+003,6.253870e+001
1.733151e+003,6.129755e+001
1.734116e+003,6.086969e+001
1.735080e+003,6.408075e+001
1.736044e+003,6.907935e+001
1.737008e+003,6.857434e+001
1.737973e+003,6.253979e+001
1.738937e+003,5.893781e+001
1.739901e+003,5.934106e+001
1.740865e+003,5.901434e+001
1.741829e+003,5.516345e+001
1.742794e+003,5.225238e+001
1.743758e+003,5.574908e+001
1.744722e+003,6.207416e+001
1.745686e+003,6.564355e+001
1.746651e+003,6.637305e+001
1.747615e+003,6.638770e+001
1.748579e+003,6.538593e+001
1.749543e+003,6.500940e+001
1.750508e+003,6.820392e+001
1.751472e+003,7.183972e+001
1.752436e+003,7.124469e+001
1.753400e+003,6.746295e+001
1.754365e+003,6.387689e+001
1.755329e+003,6.140912e+001
1.756293e+003,6.047839e+001
1.757257e+003,6.140814e+001
1.758221e+003,6.278918e+001
1.759186e+003,6.351172e+001
1.760150e+003,6.434558e+001
1.761114e+003,6.516052e+001
1.762078e+003,6.423181e+001
1.763043e+003,6.330933e+001
1.764007e+003,6.281403e+001
1.764971e+003,6.064716e+001
1.765935e+003,5.721313e+001
1.766900e+003,5.545862e+001
1.767864e+003,5.710168e+001
1.768828e+003,5.981403e+001
1.769792e+003,6.070483e+001
1.770756e+003,6.036621e+001
1.771721e+003,6.101367e+001
1.772685e+003,6.261652e+001
1.773649e+003,6.315118e+001
1.774613e+003,6.198431e+001
1.775578e+003,6.105682e+001
1.776542e+003,6.277332e+001
1.777506e+003,6.669342e+001
1.778470e+003,6.665375e+001
1.779435e+003,6.053101e+001
1.780399e+003,5.474097e+001
1.781363e+003,5.009991e+001
1.782327e+003,4.878943e+001
1.783292e+003,5.246423e+001
1.784256e+003,5.579596e+001
1.785220e+003,5.518030e+001
1.786184e+003,5.308771e+001
1.787148e+003,5.265356e+001
1.788113e+003,5.406116e+001
1.789077e+003,5.734930e+001
1.790041e+003,6.342426e+001
1.791005e+003,6.730829e+001
1.791970e+003,6.258063e+001
1.792934e+003,5.399847e+001
1.793898e+003,5.023181e+001
1.794862e+003,5.075262e+001
1.795827e+003,5.283740e+001
1.796791e+003,5.582117e+001
1.797755e+003,5.712872e+001
1.798719e+003,5.547864e+001
1.799683e+003,5.306549e+001
1.800648e+003,5.104901e+001
1.801612e+003,4.952075e+001
1.802576e+003,5.153473e+001
1.803540e+003,5.707324e+001
1.804505e+003,5.753931e+001
1.805469e+003,4.964941e+001
1.806433e+003,4.602747e+001
1.807397e+003,5.215936e+001
1.808362e+003,5.834766e+001
1.809326e+003,5.709644e+001
1.810290e+003,5.298108e+001
1.811254e+003,5.309534e+001
1.812219e+003,5.695612e+001
1.813183e+003,5.977484e+001
1.814147e+003,5.903326e+001
1.815111e+003,5.496686e+001
1.816075e+003,4.892474e+001
1.817040e+003,4.423529e+001
1.818004e+003,4.561005e+001
1.818968e+003,5.265009e+001
1.819932e+003,5.676361e+001
1.820897e+003,5.449127e+001
1.821861e+003,5.241895e+001
1.822825e+003,5.340216e+001
1.823789e+003,5.294733e+001
1.824754e+003,4.872852e+001
1.825718e+003,4.675067e+001
1.826682e+003,5.091797e+001
1.827646e+003,5.732123e+001
1.828610e+003,6.142322e+001
1.829575e+003,6.294623e+001
1.830539e+003,6.249384e+001
1.831503e+003,5.974133e+001
1.832467e+003,5.727777e+001
1.833432e+003,5.811664e+001
1.834396e+003,5.914294e+001
1.835360e+003,5.584979e+001
1.836324e+003,5.123236e+001
1.837289e+003,5.061987e+001
1.838253e+003,5.299615e+001
1.839217e+003,5.549695e+001
1.840181e+003,5.781720e+001
1.841146e+003,5.869672e+001
1.842110e+003,5.729260e+001
1.843074e+003,5.514801e+001
1.844038e+003,5.354730e+001
1.845002e+003,5.222803e+001
1.845967e+003,5.368115e+001
1.846931e+003,6.212213e+001
1.847895e+003,6.601831e+001
1.848859e+003,5.827917e+001
1.849824e+003,5.140259e+001
1.850788e+003,5.282507e+001
1.851752e+003,5.582269e+001
1.852716e+003,5.590344e+001
1.853681e+003,5.510339e+001
1.854645e+003,5.498212e+001
1.855609e+003,5.562799e+001
1.856573e+003,5.803540e+001
1.857537e+003,6.201764e+001
1.858502e+003,6.393811e+001
1.859466e+003,6.137384e+001
1.860430e+003,5.762585e+001
1.861394e+003,5.602728e+001
1.862359e+003,5.545972e+001
1.863323e+003,5.528040e+001
1.864287e+003,5.528729e+001
1.865251e+003,5.405566e+001
1.866216e+003,5.185242e+001
1.867180e+003,5.226721e+001
1.868144e+003,5.770935e+001
1.869108e+003,6.238007e+001
1.870073e+003,5.875134e+001
1.871037e+003,4.970422e+001
1.872001e+003,4.601538e+001
1.872965e+003,4.898401e+001
1.873929e+003,5.181458e+001
1.874894e+003,5.119226e+001
1.875858e+003,5.096625e+001
1.876822e+003,5.435956e+001
1.877786e+003,5.839642e+001
1.878751e+003,6.107544e+001
1.879715e+003,6.287482e+001
1.880679e+003,6.404517e+001
1.881643e+003,6.450049e+001
1.882608e+003,6.453229e+001
1.883572e+003,6.429053e+001
1.884536e+003,6.326117e+001
1.885500e+003,6.069360e+001
1.886464e+003,5.727698e+001
1.887429e+003,5.554303e+001
1.888393e+003,5.601447e+001
1.889357e+003,5.585138e+001
1.890321e+003,5.451172e+001
1.891286e+003,5.261108e+001
1.892250e+003,4.926532e+001
1.893214e+003,4.672485e+001
1.894178e+003,4.719684e+001
1.895143e+003,4.999158e+001
1.896107e+003,5.449768e+001
1.897071e+003,5.893164e+001
1.898035e+003,6.032880e+001
1.899000e+003,5.749481e+001
1.899964e+003,5.186218e+001
1.900928e+003,4.539148e+001
1.901892e+003,4.355164e+001
1.902856e+003,4.742035e+001
1.903821e+003,5.222565e+001
1.904785e+003,5.561926e+001
1.905749e+003,5.722980e+001
1.906713e+003,5.898309e+001
1.907678e+003,6.097406e+001
1.908642e+003,6.059314e+001
1.909606e+003,5.777014e+001
1.910570e+003,5.588647e+001
1.911535e+003,5.674139e+001
1.912499e+003,5.818738e+001
1.913463e+003,5.729333e+001
1.914427e+003,5.356006e+001
1.915391e+003,4.802997e+001
1.916356e+003,4.247687e+001
1.917320e+003,4.041827e+001
1.918284e+003,4.238580e+001
1.919248e+003,4.601563e+001
1.920213e+003,4.941516e+001
1.921177e+003,5.131177e+001
1.922141e+003,5.175330e+001
1.923105e+003,5.204755e+001
1.924070e+003,5.332440e+001
1.925034e+003,5.510748e+001
1.925998e+003,5.641870e+001
1.926962e+003,5.725439e+001
1.927927e+003,5.703870e+001
1.928891e+003,5.542505e+001
1.929855e+003,5.429883e+001
1.930819e+003,5.398566e+001
1.931783e+003,5.305853e+001
1.932748e+003,5.072406e+001
1.933712e+003,4.898865e+001
1.934676e+003,4.906348e+001
1.935640e+003,5.073956e+001
1.936605e+003,5.456793e+001
1.937569e+003,5.874933e+001
1.938533e+003,5.832074e+001
1.939497e+003,5.247107e+001
1.940462e+003,4.832422e+001
1.941426e+003,5.142810e+001
1.942390e+003,5.672241e+001
1.943354e+003,5.646722e+001
1.944318e+003,5.121344e+001
1.945283e+003,4.580115e+001
1.946247e+003,4.223975e+001
1.947211e+003,4.112451e+001
1.948175e+003,4.249823e+001
1.949140e+003,4.672852e+001
1.950104e+003,5.349384e+001
1.951068e+003,5.725000e+001
1.952032e+003,5.234393e+001
1.952997e+003,4.282312e+001
1.953961e+003,3.940997e+001
1.954925e+003,4.260382e+001
1.955889e+003,4.442969e+001
1.956854e+003,4.368323e+001
1.957818e+003,4.448059e+001
1.958782e+003,5.052338e+001
1.959746e+003,5.475592e+001
1.960710e+003,4.934576e+001
1.961675e+003,4.345319e+001
1.962639e+003,4.787152e+001
1.963603e+003,5.609094e+001
1.964567e+003,5.570386e+001
1.965532e+003,4.799146e+001
1.966496e+003,4.519537e+001
1.967460e+003,5.128888e+001
1.968424e+003,5.659692e+001
1.969389e+003,5.451868e+001
1.970353e+003,5.104346e+001
1.971317e+003,5.207190e+001
1.972281e+003,5.409595e+001
1.973245e+003,5.182135e+001
1.974210e+003,4.753979e+001
1.975174e+003,4.575958e+001
1.976138e+003,4.700452e+001
1.977102e+003,5.060748e+001
1.978067e+003,5.555267e+001
1.979031e+003,5.872729e+001
1.979995e+003,5.781445e+001
1.980959e+003,5.459344e+001
1.981924e+003,5.230170e+001
1.982888e+003,5.123090e+001
1.983852e+003,4.919153e+001
1.984816e+003,4.542548e+001
1.985781e+003,4.338916e+001
1.986745e+003,4.473639e+001
1.987709e+003,4.705658e+001
1.988673e+003,4.805591e+001
1.989637e+003,4.997974e+001
1.990602e+003,5.605670e+001
1.991566e+003,6.137701e+001
1.992530e+003,5.910144e+001
1.993494e+003,5.184589e+001
1.994459e+003,4.742560e+001
1.995423e+003,4.465265e+001
1.996387e+003,4.459033e+001
1.997351e+003,5.024005e+001
1.998316e+003,5.266400e+001
1.999280e+003,4.905487e+001
2.000244e+003,4.624567e+001
2.001208e+003,4.825256e+001
2.002172e+003,5.149811e+001
2.003137e+003,5.158875e+001
2.004101e+003,4.921423e+001
2.005065e+003,4.738293e+001
2.006029e+003,4.705884e+001
2.006994e+003,4.738586e+001
2.007958e+003,4.722937e+001
2.008922e+003,4.656500e+001
2.009886e+003,4.746899e+001
2.010851e+003,4.907837e+001
2.011815e+003,4.878290e+001
2.012779e+003,4.746588e+001
2.013743e+003,4.689368e+001
2.014708e+003,4.672998e+001
2.015672e+003,4.613196e+001
2.016636e+003,4.544763e+001
2.017600e+003,4.608313e+001
2.018564e+003,4.808722e+001
2.019529e+003,4.860107e+001
2.020493e+003,4.544958e+001
2.021457e+003,4.190497e+001
2.022421e+003,4.354449e+001
2.023386e+003,4.839478e+001
2.024350e+003,4.793964e+001
2.025314e+003,4.257477e+001
2.026278e+003,4.142090e+001
2.027243e+003,4.620038e+001
2.028207e+003,5.173834e+001
2.029171e+003,5.638580e+001
2.030135e+003,5.871149e+001
2.031099e+003,5.729236e+001
2.032064e+003,5.367255e+001
2.033028e+003,4.956244e+001
2.033992e+003,4.443274e+001
2.034956e+003,4.182489e+001
2.035921e+003,4.575006e+001
2.036885e+003,4.674377e+001
2.037849e+003,4.087170e+001
2.038813e+003,3.993884e+001
2.039778e+003,4.453772e+001
2.040742e+003,4.741113e+001
2.041706e+003,4.859210e+001
2.042670e+003,4.916541e+001
2.043635e+003,4.905078e+001
2.044599e+003,4.860162e+001
2.045563e+003,4.915875e+001
2.046527e+003,5.060791e+001
2.047491e+003,4.954266e+001
2.048456e+003,4.475165e+001
2.049420e+003,4.201642e+001
2.050384e+003,4.075195e+001
2.051348e+003,4.125006e+001
2.052313e+003,4.764697e+001
2.053277e+003,5.402502e+001
2.054241e+003,5.555731e+001
2.055205e+003,5.500604e+001
2.056170e+003,5.468176e+001
2.057134e+003,5.352509e+001
2.058098e+003,5.058344e+001
2.059062e+003,4.688464e+001
2.060027e+003,4.383582e+001
2.060991e+003,4.149982e+001
2.061955e+003,4.022565e+001
2.062919e+003,4.034113e+001
2.063884e+003,4.092358e+001
2.064848e+003,4.244812e+001
2.065812e+003,4.509088e+001
2.066776e+003,4.686029e+001
2.067740e+003,4.727997e+001
2.068705e+003,4.840778e+001
2.069669e+003,5.033923e+001
2.070633e+003,4.983264e+001
2.071597e+003,4.548004e+001
2.072562e+003,4.097675e+001
2.073526e+003,4.071844e+001
2.074490e+003,4.343176e+001
2.075454e+003,4.408350e+001
2.076418e+003,4.239215e+001
2.077383e+003,4.129541e+001
2.078347e+003,3.954675e+001
2.079311e+003,3.558099e+001
2.080275e+003,3.200311e+001
2.081240e+003,3.347028e+001
2.082204e+003,3.974133e+001
2.083168e+003,4.610590e+001
2.084132e+003,4.968921e+001
2.085096e+003,4.987000e+001
2.086061e+003,4.711188e+001
2.087025e+003,4.329993e+001
2.087989e+003,4.130188e+001
2.088953e+003,4.113287e+001
2.089918e+003,4.073743e+001
2.090882e+003,4.010767e+001
2.091846e+003,3.857721e+001
2.092810e+003,3.552789e+001
2.093775e+003,3.381219e+001
2.094739e+003,3.443530e+001
2.095703e+003,3.478888e+001
2.096667e+003,3.266504e+001
2.097632e+003,3.035010e+001
2.098596e+003,3.209625e+001
2.099560e+003,3.747119e+001
2.100524e+003,4.018835e+001
2.101489e+003,3.770374e+001
2.102453e+003,3.692145e+001
2.103417e+003,4.215869e+001
2.104381e+003,4.386652e+001
2.105345e+003,3.865894e+001
2.106310e+003,3.444348e+001
2.107274e+003,3.324609e+001
2.108238e+003,3.461548e+001
2.109202e+003,4.003333e+001
2.110167e+003,4.553033e+001
2.111131e+003,4.506079e+001
2.112095e+003,3.913141e+001
2.113059e+003,3.327277e+001
2.114023e+003,3.025970e+001
2.114988e+003,3.143420e+001
2.115952e+003,3.727838e+001
2.116916e+003,3.943494e+001
2.117880e+003,3.393774e+001
2.118845e+003,2.829218e+001
2.119809e+003,2.853784e+001
2.120773e+003,3.214111e+001
2.121737e+003,3.514929e+001
2.122702e+003,3.687769e+001
2.123666e+003,3.792749e+001
2.124630e+003,3.814178e+001
2.125594e+003,3.747632e+001
2.126559e+003,3.631281e+001
2.127523e+003,3.520166e+001
2.128487e+003,3.578632e+001
2.129451e+003,3.601849e+001
2.130416e+003,3.282800e+001
2.131380e+003,2.903912e+001
2.132344e+003,2.622473e+001
2.133308e+003,2.507013e+001
2.134272e+003,2.694934e+001
2.135237e+003,2.945764e+001
2.136201e+003,2.973364e+001
2.137165e+003,2.789142e+001
2.138129e+003,2.437354e+001
2.139094e+003,1.972858e+001
2.140058e+003,1.796143e+001
2.141022e+003,2.141516e+001
2.141986e+003,2.538635e+001
2.142950e+003,2.685022e+001
2.143915e+003,2.777051e+001
2.144879e+003,2.970935e+001
2.145843e+003,3.172955e+001
2.146807e+003,3.427240e+001
2.147772e+003,3.696027e+001
2.148736e+003,3.626520e+001
2.149700e+003,3.186908e+001
2.150664e+003,2.855304e+001
2.151629e+003,2.863586e+001
2.152593e+003,2.941412e+001
2.153557e+003,2.952307e+001
2.154521e+003,2.962543e+001
2.155486e+003,2.869574e+001
2.156450e+003,2.725006e+001
2.157414e+003,2.722272e+001
2.158378e+003,2.842426e+001
2.159343e+003,3.107227e+001
2.160307e+003,3.387933e+001
2.161271e+003,3.210699e+001
2.162235e+003,2.594250e+001
2.163199e+003,2.258698e+001
2.164164e+003,2.532617e+001
2.165128e+003,2.878387e+001
2.166092e+003,2.842163e+001
2.167056e+003,2.702081e+001
2.168021e+003,2.725568e+001
2.168985e+003,2.750287e+001
2.169949e+003,2.722186e+001
2.170913e+003,2.639301e+001
2.171877e+003,2.288928e+001
2.172842e+003,1.866937e+001
2.173806e+003,1.934167e+001
2.174770e+003,2.479132e+001
2.175734e+003,3.031879e+001
2.176699e+003,3.331982e+001
2.177663e+003,3.248376e+001
2.178627e+003,2.664160e+001
2.179591e+003,1.978741e+001
2.180556e+003,1.654175e+001
2.181520e+003,1.557477e+001
2.182484e+003,1.615527e+001
2.183448e+003,1.820984e+001
2.184413e+003,2.049237e+001
2.185377e+003,2.227789e+001
2.186341e+003,2.085638e+001
2.187305e+003,1.645874e+001
2.188270e+003,1.496143e+001
2.189234e+003,1.910529e+001
2.190198e+003,2.458978e+001
2.191162e+003,2.691925e+001
2.192126e+003,2.619537e+001
2.193091e+003,2.396417e+001
2.194055e+003,2.108655e+001
2.195019e+003,1.842694e+001
2.195983e+003,1.654535e+001
2.196948e+003,1.472473e+001
2.197912e+003,1.323694e+001
2.198876e+003,1.471008e+001
2.199840e+003,1.841852e+001
2.200804e+003,1.957532e+001
2.201769e+003,1.668469e+001
2.202733e+003,1.481036e+001
2.203697e+003,1.829462e+001
2.204661e+003,2.258691e+001
2.205626e+003,2.079895e+001
2.206590e+003,1.612512e+001
2.207554e+003,1.315192e+001
2.208518e+003,1.145184e+001
2.209483e+003,1.436462e+001
2.210447e+003,2.024304e+001
2.211411e+003,2.065747e+001
2.212375e+003,1.546857e+001
2.213340e+003,1.040240e+001
2.214304e+003,7.757874e+000
2.215268e+003,7.525452e+000
2.216232e+003,8.983765e+000
2.217197e+003,1.043744e+001
2.218161e+003,1.145172e+001
2.219125e+003,1.195020e+001
2.220089e+003,1.106256e+001
2.221053e+003,1.044092e+001
2.222018e+003,1.160364e+001
2.222982e+003,1.248749e+001
2.223946e+003,1.106561e+001
2.224910e+003,8.926147e+000
2.225875e+003,9.204224e+000
2.226839e+003,1.165564e+001
2.227803e+003,1.235242e+001
2.228767e+003,9.277039e+000
2.229731e+003,6.319763e+000
2.230696e+003,7.436401e+000
2.231660e+003,1.005103e+001
2.232624e+003,1.265887e+001
2.233588e+003,1.482959e+001
2.234553e+003,1.187378e+001
2.235517e+003,7.503601e+000
2.236481e+003,1.092047e+001
2.237445e+003,1.850702e+001
2.238410e+003,2.071027e+001
2.239374e+003,1.749298e+001
2.240338e+003,1.416211e+001
2.241302e+003,1.270886e+001
2.242267e+003,1.318243e+001
2.243231e+003,1.601636e+001
2.244195e+003,1.868689e+001
2.245159e+003,1.815985e+001
2.246124e+003,1.562122e+001
2.247088e+003,1.099683e+001
2.248052e+003,6.610901e+000
2.249016e+003,8.180481e+000
2.249980e+003,1.256830e+001
2.250945e+003,1.242920e+001
2.251909e+003,9.148682e+000
2.252873e+003,8.684265e+000
2.253837e+003,1.151056e+001
2.254802e+003,1.376233e+001
2.255766e+003,1.427118e+001
2.256730e+003,1.468451e+001
2.257694e+003,1.596521e+001
2.258658e+003,1.637885e+001
2.259623e+003,1.433636e+001
2.260587e+003,1.129340e+001
2.261551e+003,7.978516e+000
2.262515e+003,5.403625e+000
2.263480e+003,5.083252e+000
2.264444e+003,6.747070e+000
2.265408e+003,9.304138e+000
2.266372e+003,1.135919e+001
2.267337e+003,1.142828e+001
2.268301e+003,9.439758e+000
2.269265e+003,7.507751e+000
2.270229e+003,8.767029e+000
2.271194e+003,1.141766e+001
2.272158e+003,1.103339e+001
2.273122e+003,9.291992e+000
2.274086e+003,8.512695e+000
2.275051e+003,7.771851e+000
2.276015e+003,6.746582e+000
2.276979e+003,6.648438e+000
2.277943e+003,8.052185e+000
2.278907e+003,1.018384e+001
2.279872e+003,1.205316e+001
2.280836e+003,1.283203e+001
2.281800e+003,1.202319e+001
2.282764e+003,1.011194e+001
2.283729e+003,8.769531e+000
2.284693e+003,9.605957e+000
2.285657e+003,1.105975e+001
2.286621e+003,9.566467e+000
2.287585e+003,7.596497e+000
2.288550e+003,8.964722e+000
2.289514e+003,1.106262e+001
2.290478e+003,1.024664e+001
2.291442e+003,9.146423e+000
2.292407e+003,1.269427e+001
2.293371e+003,1.882288e+001
2.294335e+003,1.910181e+001
2.295299e+003,1.193365e+001
2.296264e+003,7.065308e+000
2.297228e+003,5.639160e+000
2.298192e+003,5.633850e+000
2.299156e+003,8.733948e+000
2.300121e+003,1.157391e+001
2.301085e+003,1.089459e+001
2.302049e+003,1.039581e+001
2.303013e+003,1.318988e+001
2.303978e+003,1.805829e+001
2.304942e+003,2.399835e+001
2.305906e+003,2.844739e+001
2.306870e+003,2.553601e+001
2.307834e+003,1.656036e+001
2.308799e+003,1.412610e+001
2.309763e+003,1.946814e+001
2.310727e+003,2.439850e+001
2.311691e+003,2.792957e+001
2.312656e+003,2.672662e+001
2.313620e+003,2.007751e+001
2.314584e+003,1.698743e+001
2.315548e+003,2.102765e+001
2.316512e+003,2.364832e+001
2.317477e+003,1.953284e+001
2.318441e+003,1.571466e+001
2.319405e+003,1.973309e+001
2.320369e+003,2.715265e+001
2.321334e+003,2.838092e+001
2.322298e+003,2.455780e+001
2.323262e+003,2.370532e+001
2.324226e+003,2.668646e+001
2.325191e+003,3.112683e+001
2.326155e+003,3.549701e+001
2.327119e+003,3.809930e+001
2.328083e+003,3.846674e+001
2.329048e+003,3.768463e+001
2.330012e+003,3.726080e+001
2.330976e+003,3.780237e+001
2.331940e+003,3.805359e+001
2.332905e+003,3.710303e+001
2.333869e+003,3.559235e+001
2.334833e+003,3.485919e+001
2.335797e+003,3.648462e+001
2.336761e+003,3.914642e+001
2.337726e+003,3.972742e+001
2.338690e+003,3.843793e+001
2.339654e+003,3.695087e+001
2.340618e+003,3.675473e+001
2.341583e+003,3.971259e+001
2.342547e+003,4.532684e+001
2.343511e+003,4.995374e+001
2.344475e+003,5.193414e+001
2.345439e+003,5.266855e+001
2.346404e+003,5.135529e+001
2.347368e+003,5.060931e+001
2.348332e+003,5.396652e+001
2.349296e+003,5.716229e+001
2.350261e+003,5.815414e+001
2.351225e+003,5.911099e+001
2.352189e+003,5.950879e+001
2.353153e+003,5.978726e+001
2.354118e+003,6.025073e+001
2.355082e+003,6.139270e+001
2.356046e+003,6.664154e+001
2.357010e+003,7.623038e+001
2.357975e+003,7.957892e+001
2.358939e+003,7.360559e+001
2.359903e+003,7.333411e+001
2.360867e+003,7.933902e+001
2.361832e+003,8.182874e+001
2.362796e+003,8.100854e+001
2.363760e+003,8.093781e+001
2.364724e+003,8.344342e+001
2.365688e+003,8.729758e+001
2.366653e+003,8.959988e+001
2.367617e+003,9.204068e+001
2.368581e+003,9.853891e+001
2.369545e+003,1.060085e+002
2.370510e+003,1.072693e+002
2.371474e+003,1.044626e+002
2.372438e+003,1.032881e+002
2.373402e+003,1.032842e+002
2.374366e+003,1.047847e+002
2.375331e+003,1.074411e+002
2.376295e+003,1.089173e+002
2.377259e+003,1.093487e+002
2.378223e+003,1.112099e+002
2.379188e+003,1.146808e+002
2.380152e+003,1.170413e+002
2.381116e+003,1.171695e+002
2.382080e+003,1.172896e+002
2.383045e+003,1.188986e+002
2.384009e+003,1.202384e+002
2.384973e+003,1.199618e+002
2.385937e+003,1.192902e+002
2.386902e+003,1.192899e+002
2.387866e+003,1.212742e+002
2.388830e+003,1.260418e+002
2.389794e+003,1.303889e+002
2.390759e+003,1.310510e+002
2.391723e+003,1.284677e+002
2.392687e+003,1.244561e+002
2.393651e+003,1.208799e+002
2.394615e+003,1.208661e+002
2.395580e+003,1.245780e+002
2.396544e+003,1.289007e+002
2.397508e+003,1.362126e+002
2.398472e+003,1.388288e+002
2.399437e+003,1.323517e+002
2.400401e+003,1.289237e+002
2.401365e+003,1.332959e+002
2.402329e+003,1.376411e+002
2.403293e+003,1.374231e+002
2.404258e+003,1.345717e+002
2.405222e+003,1.312803e+002
2.406186e+003,1.291207e+002
2.407150e+003,1.303924e+002
2.408115e+003,1.339243e+002
2.409079e+003,1.340245e+002
2.410043e+003,1.308724e+002
2.411007e+003,1.317529e+002
2.411972e+003,1.368348e+002
2.412936e+003,1.439695e+002
2.413900e+003,1.513468e+002
2.414864e+003,1.534740e+002
2.415829e+003,1.502393e+002
2.416793e+003,1.461996e+002
2.417757e+003,1.431584e+002
2.418721e+003,1.414971e+002
2.419686e+003,1.422333e+002
2.420650e+003,1.439384e+002
2.421614e+003,1.445062e+002
2.422578e+003,1.451389e+002
2.423542e+003,1.476164e+002
2.424507e+003,1.497493e+002
2.425471e+003,1.498264e+002
2.426435e+003,1.495261e+002
2.427399e+003,1.493116e+002
2.428364e+003,1.485054e+002
2.429328e+003,1.480986e+002
2.430292e+003,1.490358e+002
2.431256e+003,1.501154e+002
2.432220e+003,1.508679e+002
2.433185e+003,1.509930e+002
2.434149e+003,1.486669e+002
2.435113e+003,1.463773e+002
2.436077e+003,1.449331e+002
2.437042e+003,1.434622e+002
2.438006e+003,1.415322e+002
2.438970e+003,1.401802e+002
2.439934e+003,1.401546e+002
2.440899e+003,1.400603e+002
2.441863e+003,1.391695e+002
2.442827e+003,1.381953e+002
2.443791e+003,1.369814e+002
2.444756e+003,1.351672e+002
2.445720e+003,1.340396e+002
2.446684e+003,1.333366e+002
2.447648e+003,1.309876e+002
2.448613e+003,1.278178e+002
2.449577e+003,1.264397e+002
2.450541e+003,1.266059e+002
2.451505e+003,1.268680e+002
2.452469e+003,1.270888e+002
2.453434e+003,1.269741e+002
2.454398e+003,1.253510e+002
2.455362e+003,1.220335e+002
2.456326e+003,1.192397e+002
2.457291e+003,1.196432e+002
2.458255e+003,1.251345e+002
2.459219e+003,1.288506e+002
2.460183e+003,1.236631e+002
2.461147e+003,1.172306e+002
2.462112e+003,1.170191e+002
2.463076e+003,1.187607e+002
2.464040e+003,1.177450e+002
2.465004e+003,1.141714e+002
2.465969e+003,1.097250e+002
2.466933e+003,1.065308e+002
2.467897e+003,1.060788e+002
2.468861e+003,1.066273e+002
2.469826e+003,1.045605e+002
2.470790e+003,9.973676e+001
2.471754e+003,9.846774e+001
2.472718e+003,1.018040e+002
2.473683e+003,1.055937e+002
2.474647e+003,1.078008e+002
2.475611e+003,1.090039e+002
2.476575e+003,1.103669e+002
2.477540e+003,1.086975e+002
2.478504e+003,1.025051e+002
2.479468e+003,9.784955e+001
2.480432e+003,9.926819e+001
2.481396e+003,1.022631e+002
2.482361e+003,1.032635e+002
2.483325e+003,1.038303e+002
2.484289e+003,1.030007e+002
2.485253e+003,1.015971e+002
2.486218e+003,1.028162e+002
2.487182e+003,1.029684e+002
2.488146e+003,9.724133e+001
2.489110e+003,8.985928e+001
2.490074e+003,8.635339e+001
2.491039e+003,8.680347e+001
2.492003e+003,8.909601e+001
2.492967e+003,9.107938e+001
2.493931e+003,8.990567e+001
2.494896e+003,8.595361e+001
2.495860e+003,8.488214e+001
2.496824e+003,8.812012e+001
2.497788e+003,9.033307e+001
2.498753e+003,9.010873e+001
2.499717e+003,8.849893e+001
2.500681e+003,8.610828e+001
2.501645e+003,8.556424e+001
2.502610e+003,8.762680e+001
2.503574e+003,8.906625e+001
2.504538e+003,8.806702e+001
2.505502e+003,8.705002e+001
2.506467e+003,8.754810e+001
2.507431e+003,8.773334e+001
2.508395e+003,8.549197e+001
2.509359e+003,8.396539e+001
2.510323e+003,8.863443e+001
2.511288e+003,9.429922e+001
2.512252e+003,9.427167e+001
2.513216e+003,9.034134e+001
2.514180e+003,8.428375e+001
2.515145e+003,7.858255e+001
2.516109e+003,7.881436e+001
2.517073e+003,8.486908e+001
2.518037e+003,8.807071e+001
2.519001e+003,8.709647e+001
2.519966e+003,8.463104e+001
2.520930e+003,7.851068e+001
2.521894e+003,7.773373e+001
2.522858e+003,8.464740e+001
2.523823e+003,9.018170e+001
2.524787e+003,9.192709e+001
2.525751e+003,9.198715e+001
2.526715e+003,9.143356e+001
2.527680e+003,9.003445e+001
2.528644e+003,8.784705e+001
2.529608e+003,8.630963e+001
2.530572e+003,8.582629e+001
2.531537e+003,8.574796e+001
2.532501e+003,8.779916e+001
2.533465e+003,8.978534e+001
2.534429e+003,8.823288e+001
2.535394e+003,8.612299e+001
2.536358e+003,8.638211e+001
2.537322e+003,8.690204e+001
2.538286e+003,8.537918e+001
2.539250e+003,8.246393e+001
2.540215e+003,7.892358e+001
2.541179e+003,7.506262e+001
2.542143e+003,7.457217e+001
2.543107e+003,7.958899e+001
2.544072e+003,8.472787e+001
2.545036e+003,8.883463e+001
2.546000e+003,9.106482e+001
2.546964e+003,9.100150e+001
2.547928e+003,8.977121e+001
2.548893e+003,8.752036e+001
2.549857e+003,8.772623e+001
2.550821e+003,9.180383e+001
2.551785e+003,9.398389e+001
2.552750e+003,9.069205e+001
2.553714e+003,8.628116e+001
2.554678e+003,8.467682e+001
2.555642e+003,8.538052e+001
2.556607e+003,8.779312e+001
2.557571e+003,8.946982e+001
2.558535e+003,8.896600e+001
2.559499e+003,8.718381e+001
2.560464e+003,8.751978e+001
2.561428e+003,8.735437e+001
2.562392e+003,7.880386e+001
2.563356e+003,6.758899e+001
2.564321e+003,6.645068e+001
2.565285e+003,7.278351e+001
2.566249e+003,7.610870e+001
2.567213e+003,7.557516e+001
2.568177e+003,7.285950e+001
2.569142e+003,6.803333e+001
2.570106e+003,6.715167e+001
2.571070e+003,7.068936e+001
2.572034e+003,7.122626e+001
2.572999e+003,6.878796e+001
2.573963e+003,7.007935e+001
2.574927e+003,7.494681e+001
2.575891e+003,7.638013e+001
2.576855e+003,7.155441e+001
2.577820e+003,6.670706e+001
2.578784e+003,6.748535e+001
2.579748e+003,6.906583e+001
2.580712e+003,6.894922e+001
2.581677e+003,6.817700e+001
2.582641e+003,6.356534e+001
2.583605e+003,5.984448e+001
2.584569e+003,6.217590e+001
2.585534e+003,6.450372e+001
2.586498e+003,6.305460e+001
2.587462e+003,6.098679e+001
2.588426e+003,6.118106e+001
2.589391e+003,6.158820e+001
2.590355e+003,5.912021e+001
2.591319e+003,5.512509e+001
2.592283e+003,5.300641e+001
2.593248e+003,5.242569e+001
2.594212e+003,5.237369e+001
2.595176e+003,5.275616e+001
2.596140e+003,5.419351e+001
2.597104e+003,5.554752e+001
2.598069e+003,5.321054e+001
2.599033e+003,4.889084e+001
2.599997e+003,5.011752e+001
2.600961e+003,5.713382e+001
2.601926e+003,5.815692e+001
2.602890e+003,4.839182e+001
2.603854e+003,4.384344e+001
2.604818e+003,4.776450e+001
2.605782e+003,4.956558e+001
2.606747e+003,4.951578e+001
2.607711e+003,4.819321e+001
2.608675e+003,4.533862e+001
2.609639e+003,4.372708e+001
2.610604e+003,4.453171e+001
2.611568e+003,4.680109e+001
2.612532e+003,4.967783e+001
2.613496e+003,5.112381e+001
2.614461e+003,4.855753e+001
2.615425e+003,4.520309e+001
2.616389e+003,4.564090e+001
2.617353e+003,4.606024e+001
2.618318e+003,4.398584e+001
2.619282e+003,4.082516e+001
2.620246e+003,3.691251e+001
2.621210e+003,3.553806e+001
2.622175e+003,3.868213e+001
2.623139e+003,4.251382e+001
2.624103e+003,4.313123e+001
2.625067e+003,4.111563e+001
2.626031e+003,4.066953e+001
2.626996e+003,4.334641e+001
2.627960e+003,4.419946e+001
2.628924e+003,4.210446e+001
2.629888e+003,3.981873e+001
2.630853e+003,3.735834e+001
2.631817e+003,3.705679e+001
2.632781e+003,4.014297e+001
2.633745e+003,4.184937e+001
2.634709e+003,4.019946e+001
2.635674e+003,3.905634e+001
2.636638e+003,3.979642e+001
2.637602e+003,4.130011e+001
2.638566e+003,4.621655e+001
2.639531e+003,4.876648e+001
2.640495e+003,4.158691e+001
2.641459e+003,3.799118e+001
2.642423e+003,4.075720e+001
2.643388e+003,4.327631e+001
2.644352e+003,4.380606e+001
2.645316e+003,4.243854e+001
2.646280e+003,3.912369e+001
2.647245e+003,3.641226e+001
2.648209e+003,3.723770e+001
2.649173e+003,3.903638e+001
2.650137e+003,3.727518e+001
2.651102e+003,3.563181e+001
2.652066e+003,3.695541e+001
2.653030e+003,3.715320e+001
2.653994e+003,3.632285e+001
2.654958e+003,3.621677e+001
2.655923e+003,3.750516e+001
2.656887e+003,4.013535e+001
2.657851e+003,4.353369e+001
2.658815e+003,4.462338e+001
2.659780e+003,4.104062e+001
2.660744e+003,3.580615e+001
2.661708e+003,3.410141e+001
2.662672e+003,3.497375e+001
2.663636e+003,3.460626e+001
2.664601e+003,3.315210e+001
2.665565e+003,3.028055e+001
2.666529e+003,2.775757e+001
2.667493e+003,3.010608e+001
2.668458e+003,3.532977e+001
2.669422e+003,3.935074e+001
2.670386e+003,4.006085e+001
2.671350e+003,3.694669e+001
2.672315e+003,3.231564e+001
2.673279e+003,2.818301e+001
2.674243e+003,2.258276e+001
2.675207e+003,2.216699e+001
2.676172e+003,2.939447e+001
2.677136e+003,3.101056e+001
2.678100e+003,2.718637e+001
2.679064e+003,2.612283e+001
2.680029e+003,2.736465e+001
2.680993e+003,2.756281e+001
2.681957e+003,2.716190e+001
2.682921e+003,2.873627e+001
2.683885e+003,3.178003e+001
2.684850e+003,3.155615e+001
2.685814e+003,2.726456e+001
2.686778e+003,2.456396e+001
2.687742e+003,2.468018e+001
2.688707e+003,2.549442e+001
2.689671e+003,2.440979e+001
2.690635e+003,2.265323e+001
2.691599e+003,2.189709e+001
2.692563e+003,2.242383e+001
2.693528e+003,2.469510e+001
2.694492e+003,2.568140e+001
2.695456e+003,2.291568e+001
2.696420e+003,2.091876e+001
2.697385e+003,2.525250e+001
2.698349e+003,2.941989e+001
2.699313e+003,2.437579e+001
2.700277e+003,1.837848e+001
2.701242e+003,1.691895e+001
2.702206e+003,1.687021e+001
2.703170e+003,1.717566e+001
2.704134e+003,1.824298e+001
2.705099e+003,2.261209e+001
2.706063e+003,2.717828e+001
2.707027e+003,2.758475e+001
2.707991e+003,2.541278e+001
2.708956e+003,2.336621e+001
2.709920e+003,2.064722e+001
2.710884e+003,1.805508e+001
2.711848e+003,1.659518e+001
2.712813e+003,1.696295e+001
2.713777e+003,1.899048e+001
2.714741e+003,2.004160e+001
2.715705e+003,1.853772e+001
2.716669e+003,1.631793e+001
2.717634e+003,1.552899e+001
2.718598e+003,1.881369e+001
2.719562e+003,2.587054e+001
2.720526e+003,2.627335e+001
2.721490e+003,1.626413e+001
2.722455e+003,1.165524e+001
2.723419e+003,1.488293e+001
2.724383e+003,1.570428e+001
2.725347e+003,1.452924e+001
2.726312e+003,1.589783e+001
2.727276e+003,1.778513e+001
2.728240e+003,1.630283e+001
2.729204e+003,1.380447e+001
2.730169e+003,1.349182e+001
2.731133e+003,1.372260e+001
2.732097e+003,1.359830e+001
2.733061e+003,1.390555e+001
2.734026e+003,1.241293e+001
2.734990e+003,1.277057e+001
2.735954e+003,1.358224e+001
2.736918e+003,1.169470e+001
2.737883e+003,1.292371e+001
2.738847e+003,1.735162e+001
2.739811e+003,1.831436e+001
2.740775e+003,1.474649e+001
2.741740e+003,1.139413e+001
2.742704e+003,1.160153e+001
2.743668e+003,1.348853e+001
2.744632e+003,1.426370e+001
2.745596e+003,1.536249e+001
2.746561e+003,1.620822e+001
2.747525e+003,1.463620e+001
2.748489e+003,1.380383e+001
2.749453e+003,1.088348e+001
2.750417e+003,4.264587e+000
2.751382e+003,2.360199e+000
2.752346e+003,8.014923e+000
2.753310e+003,1.340604e+001
2.754274e+003,1.317355e+001
2.755239e+003,1.070590e+001
2.756203e+003,9.454224e+000
2.757167e+003,8.832581e+000
2.758131e+003,7.449432e+000
2.759096e+003,6.798584e+000
2.760060e+003,9.762177e+000
2.761024e+003,1.244846e+001
2.761988e+003,1.112088e+001
2.762953e+003,1.068484e+001
2.763917e+003,1.469183e+001
2.764881e+003,1.769656e+001
2.765845e+003,1.416165e+001
2.766810e+003,8.928192e+000
2.767774e+003,1.013681e+001
2.768738e+003,1.405804e+001
2.769702e+003,1.312930e+001
2.770667e+003,1.180228e+001
2.771631e+003,1.385870e+001
2.772595e+003,1.472708e+001
2.773559e+003,1.323822e+001
2.774523e+003,1.161499e+001
2.775488e+003,1.201489e+001
2.776452e+003,1.442285e+001
2.777416e+003,1.433453e+001
2.778380e+003,9.157562e+000
2.779344e+003,6.708740e+000
2.780309e+003,9.643677e+000
2.781273e+003,1.183023e+001
2.782237e+003,1.541391e+001
2.783201e+003,1.896237e+001
2.784166e+003,1.767310e+001
2.785130e+003,1.183575e+001
2.786094e+003,7.054657e+000
2.787058e+003,1.178812e+001
2.788023e+003,2.068042e+001
2.788987e+003,1.785611e+001
2.789951e+003,7.665039e+000
2.790915e+003,9.472656e+000
2.791880e+003,2.062274e+001
2.792844e+003,2.182288e+001
2.793808e+003,1.720520e+001
2.794772e+003,1.724765e+001
2.795737e+003,1.824020e+001
2.796701e+003,1.874243e+001
2.797665e+003,1.822726e+001
2.798629e+003,1.119760e+001
2.799594e+003,2.074127e+000
2.800558e+003,2.696991e+000
2.801522e+003,1.075037e+001
2.802486e+003,1.473093e+001
2.803450e+003,1.299753e+001
2.804415e+003,1.365710e+001
2.805379e+003,1.646289e+001
2.806343e+003,1.649243e+001
2.807307e+003,1.758148e+001
2.808271e+003,1.716803e+001
2.809236e+003,1.298895e+001
2.810200e+003,1.344058e+001
2.811164e+003,1.937503e+001
2.812128e+003,1.994858e+001
2.813093e+003,1.453644e+001
2.814057e+003,1.599728e+001
2.815021e+003,2.091144e+001
2.815985e+003,1.911359e+001
2.816950e+003,1.532379e+001
2.817914e+003,1.655191e+001
2.818878e+003,2.022769e+001
2.819842e+003,2.212607e+001
2.820807e+003,2.272263e+001
2.821771e+003,2.098828e+001
2.822735e+003,1.629538e+001
2.823699e+003,1.397861e+001
2.824664e+003,1.703732e+001
2.825628e+003,1.640817e+001
2.826592e+003,1.096982e+001
2.827556e+003,9.710632e+000
2.828521e+003,1.050165e+001
2.829485e+003,1.202548e+001
2.830449e+003,1.529071e+001
2.831413e+003,1.849216e+001
2.832377e+003,1.963742e+001
2.833342e+003,1.642245e+001
2.834306e+003,1.050574e+001
2.835270e+003,7.243469e+000
2.836234e+003,7.524109e+000
2.837198e+003,1.032544e+001
2.838163e+003,1.773288e+001
2.839127e+003,1.976282e+001
2.840091e+003,1.575458e+001
2.841055e+003,1.599976e+001
2.842020e+003,1.979608e+001
2.842984e+003,2.056790e+001
2.843948e+003,1.862650e+001
2.844912e+003,1.919821e+001
2.845877e+003,2.267462e+001
2.846841e+003,2.246567e+001
2.847805e+003,1.628912e+001
2.848769e+003,1.337964e+001
2.849734e+003,1.532428e+001
2.850698e+003,1.769632e+001
2.851662e+003,2.073553e+001
2.852626e+003,1.983862e+001
2.853591e+003,1.606564e+001
2.854555e+003,1.525699e+001
2.855519e+003,1.746359e+001
2.856483e+003,2.029498e+001
2.857448e+003,2.252905e+001
2.858412e+003,2.262314e+001
2.859376e+003,2.100720e+001
2.860340e+003,2.070392e+001
2.861304e+003,2.158270e+001
2.862269e+003,2.245850e+001
2.863233e+003,2.213620e+001
2.864197e+003,2.264853e+001
2.865161e+003,2.537354e+001
2.866125e+003,2.436203e+001
2.867090e+003,1.912979e+001
2.868054e+003,1.823361e+001
2.869018e+003,2.273996e+001
2.869982e+003,2.373721e+001
2.870947e+003,2.016138e+001
2.871911e+003,2.060867e+001
2.872875e+003,2.461188e+001
2.873839e+003,2.457440e+001
2.874804e+003,2.085324e+001
2.875768e+003,1.979242e+001
2.876732e+003,2.175275e+001
2.877696e+003,2.293298e+001
2.878661e+003,2.291638e+001
2.879625e+003,2.374954e+001
2.880589e+003,2.583661e+001
2.881553e+003,2.891010e+001
2.882518e+003,3.377573e+001
2.883482e+003,3.455783e+001
2.884446e+003,2.934933e+001
2.885410e+003,3.005948e+001
2.886375e+003,3.627298e+001
2.887339e+003,3.799957e+001
2.888303e+003,3.575003e+001
2.889267e+003,3.654346e+001
2.890231e+003,4.054523e+001
2.891196e+003,4.320901e+001
2.892160e+003,4.373651e+001
2.893124e+003,4.465384e+001
2.894088e+003,4.636234e+001
2.895052e+003,4.783685e+001
2.896017e+003,4.900613e+001
2.896981e+003,5.140686e+001
2.897945e+003,5.460577e+001
2.898909e+003,5.479095e+001
2.899874e+003,5.312961e+001
2.900838e+003,5.459784e+001
2.901802e+003,5.884576e+001
2.902766e+003,6.192664e+001
2.903731e+003,6.334164e+001
2.904695e+003,6.530621e+001
2.905659e+003,6.795178e+001
2.906623e+003,6.898279e+001
2.907588e+003,6.860992e+001
2.908552e+003,7.094791e+001
2.909516e+003,7.502628e+001
2.910480e+003,7.650058e+001
2.911445e+003,7.665427e+001
2.912409e+003,7.975073e+001
2.913373e+003,8.523318e+001
2.914337e+003,9.045206e+001
2.915302e+003,9.464667e+001
2.916266e+003,9.592010e+001
2.917230e+003,9.459381e+001
2.918194e+003,9.429849e+001
2.919158e+003,9.508972e+001
2.920123e+003,9.739703e+001
2.921087e+003,1.009004e+002
2.922051e+003,1.058242e+002
2.923015e+003,1.107836e+002
2.923979e+003,1.125572e+002
2.924944e+003,1.129969e+002
2.925908e+003,1.179900e+002
2.926872e+003,1.247067e+002
2.927836e+003,1.230356e+002
2.928801e+003,1.162419e+002
2.929765e+003,1.195187e+002
2.930729e+003,1.279809e+002
2.931693e+003,1.316042e+002
2.932658e+003,1.330274e+002
2.933622e+003,1.382189e+002
2.934586e+003,1.430873e+002
2.935550e+003,1.386368e+002
2.936515e+003,1.319856e+002
2.937479e+003,1.330142e+002
2.938443e+003,1.389900e+002
2.939407e+003,1.447533e+002
2.940372e+003,1.496020e+002
2.941336e+003,1.514865e+002
2.942300e+003,1.521082e+002
2.943264e+003,1.525907e+002
2.944229e+003,1.539730e+002
2.945193e+003,1.588531e+002
2.946157e+003,1.629052e+002
2.947121e+003,1.620363e+002
2.948085e+003,1.602164e+002
2.949050e+003,1.622670e+002
2.950014e+003,1.649380e+002
2.950978e+003,1.623891e+002
2.951942e+003,1.590227e+002
2.952906e+003,1.586483e+002
2.953871e+003,1.610089e+002
2.954835e+003,1.686157e+002
2.955799e+003,1.750901e+002
2.956763e+003,1.770914e+002
2.957728e+003,1.775395e+002
2.958692e+003,1.782444e+002
2.959656e+003,1.783948e+002
2.960620e+003,1.770176e+002
2.961585e+003,1.767560e+002
2.962549e+003,1.815932e+002
2.963513e+003,1.860877e+002
2.964477e+003,1.859458e+002
2.965442e+003,1.874243e+002
2.966406e+003,1.933774e+002
2.967370e+003,1.972259e+002
2.968334e+003,1.967113e+002
2.969299e+003,1.966962e+002
2.970263e+003,1.994767e+002
2.971227e+003,2.015007e+002
2.972191e+003,2.003779e+002
2.973156e+003,1.997496e+002
2.974120e+003,2.021171e+002
2.975084e+003,2.036845e+002
2.976048e+003,2.034765e+002
2.977012e+003,2.048858e+002
2.977977e+003,2.083636e+002
2.978941e+003,2.104986e+002
2.979905e+003,2.107820e+002
2.980869e+003,2.123081e+002
2.981833e+003,2.157805e+002
2.982798e+003,2.172858e+002
2.983762e+003,2.149680e+002
2.984726e+003,2.143853e+002
2.985690e+003,2.162668e+002
2.986655e+003,2.176832e+002
2.987619e+003,2.186241e+002
2.988583e+003,2.207874e+002
2.989547e+003,2.235270e+002
2.990512e+003,2.227401e+002
2.991476e+003,2.198519e+002
2.992440e+003,2.223208e+002
2.993404e+003,2.301832e+002
2.994369e+003,2.331866e+002
2.995333e+003,2.314577e+002
2.996297e+003,2.349561e+002
2.997261e+003,2.419595e+002
2.998226e+003,2.404985e+002
2.999190e+003,2.346133e+002
3.000154e+003,2.339578e+002
3.001118e+003,2.368350e+002
3.002083e+003,2.388290e+002
3.003047e+003,2.403745e+002
3.004011e+003,2.439992e+002
3.004975e+003,2.475904e+002
3.005939e+003,2.452017e+002
3.006904e+003,2.402940e+002
3.007868e+003,2.430678e+002
3.008832e+003,2.486788e+002
3.009796e+003,2.511229e+002
3.010760e+003,2.514260e+002
3.011725e+003,2.490286e+002
3.012689e+003,2.476204e+002
3.013653e+003,2.504160e+002
3.014617e+003,2.540350e+002
3.015582e+003,2.550211e+002
3.016546e+003,2.554603e+002
3.017510e+003,2.580154e+002
3.018474e+003,2.613377e+002
3.019439e+003,2.649373e+002
3.020403e+003,2.677695e+002
3.021367e+003,2.684709e+002
3.022331e+003,2.695229e+002
3.023296e+003,2.716451e+002
3.024260e+003,2.746458e+002
3.025224e+003,2.783607e+002
3.026188e+003,2.814880e+002
3.027153e+003,2.832132e+002
3.028117e+003,2.842924e+002
3.029081e+003,2.841915e+002
3.030045e+003,2.855944e+002
3.031010e+003,2.895437e+002
3.031974e+003,2.928134e+002
3.032938e+003,2.950323e+002
3.033902e+003,2.976481e+002
3.034866e+003,3.007687e+002
3.035831e+003,3.031966e+002
3.036795e+003,3.046454e+002
3.037759e+003,3.060583e+002
3.038723e+003,3.078089e+002
3.039688e+003,3.056955e+002
3.040652e+003,2.984109e+002
3.041616e+003,2.977558e+002
3.042580e+003,3.027840e+002
3.043544e+003,3.084586e+002
3.044509e+003,3.137215e+002
3.045473e+003,3.178025e+002
3.046437e+003,3.204497e+002
3.047401e+003,3.207593e+002
3.048366e+003,3.197131e+002
3.049330e+003,3.198919e+002
3.050294e+003,3.211624e+002
3.051258e+003,3.235376e+002
3.052223e+003,3.262357e+002
3.053187e+003,3.273429e+002
3.054151e+003,3.277315e+002
3.055115e+003,3.278766e+002
3.056080e+003,3.286926e+002
3.057044e+003,3.316318e+002
3.058008e+003,3.342191e+002
3.058972e+003,3.340499e+002
3.059937e+003,3.339615e+002
3.060901e+003,3.377137e+002
3.061865e+003,3.421617e+002
3.062829e+003,3.441954e+002
3.063793e+003,3.451748e+002
3.064758e+003,3.446767e+002
3.065722e+003,3.455573e+002
3.066686e+003,3.490472e+002
3.067650e+003,3.513528e+002
3.068615e+003,3.511328e+002
3.069579e+003,3.515215e+002
3.070543e+003,3.540917e+002
3.071507e+003,3.568429e+002
3.072471e+003,3.588654e+002
3.073436e+003,3.606725e+002
3.074400e+003,3.624513e+002
3.075364e+003,3.635834e+002
3.076328e+003,3.640826e+002
3.077293e+003,3.656159e+002
3.078257e+003,3.677507e+002
3.079221e+003,3.670199e+002
3.080185e+003,3.641213e+002
3.081150e+003,3.649329e+002
3.082114e+003,3.697693e+002
3.083078e+003,3.713219e+002
3.084042e+003,3.699523e+002
3.085007e+003,3.710297e+002
3.085971e+003,3.736817e+002
3.086935e+003,3.754928e+002
3.087899e+003,3.769027e+002
3.088864e+003,3.797349e+002
3.089828e+003,3.818798e+002
3.090792e+003,3.792902e+002
3.091756e+003,3.764308e+002
3.092720e+003,3.795263e+002
3.093685e+003,3.845222e+002
3.094649e+003,3.839457e+002
3.095613e+003,3.821776e+002
3.096577e+003,3.850626e+002
3.097542e+003,3.873639e+002
3.098506e+003,3.849092e+002
3.099470e+003,3.818790e+002
3.100434e+003,3.793275e+002
3.101398e+003,3.796941e+002
3.102363e+003,3.840626e+002
3.103327e+003,3.883028e+002
3.104291e+003,3.899282e+002
3.105255e+003,3.904536e+002
3.106220e+003,3.885568e+002
3.107184e+003,3.904537e+002
3.108148e+003,3.974480e+002
3.109112e+003,3.995574e+002
3.110077e+003,3.965857e+002
3.111041e+003,3.953346e+002
3.112005e+003,3.969509e+002
3.112969e+003,4.005005e+002
3.113934e+003,4.049865e+002
3.114898e+003,4.060361e+002
3.115862e+003,4.038528e+002
3.116826e+003,4.005004e+002
3.117791e+003,3.973709e+002
3.118755e+003,4.033035e+002
3.119719e+003,4.125591e+002
3.120683e+003,4.144542e+002
3.121647e+003,4.127707e+002
3.122612e+003,4.126213e+002
3.123576e+003,4.146695e+002
3.124540e+003,4.199772e+002
3.125504e+003,4.250074e+002
3.126469e+003,4.240144e+002
3.127433e+003,4.217000e+002
3.128397e+003,4.246356e+002
3.129361e+003,4.270067e+002
3.130325e+003,4.219499e+002
3.131290e+003,4.221599e+002
3.132254e+003,4.325065e+002
3.133218e+003,4.382480e+002
3.134182e+003,4.341045e+002
3.135147e+003,4.297304e+002
3.136111e+003,4.298351e+002
3.137075e+003,4.316540e+002
3.138039e+003,4.341376e+002
3.139004e+003,4.393351e+002
3.139968e+003,4.479999e+002
3.140932e+003,4.495790e+002
3.141896e+003,4.452779e+002
3.142861e+003,4.436672e+002
3.143825e+003,4.453813e+002
3.144789e+003,4.492623e+002
3.145753e+003,4.536092e+002
3.146718e+003,4.539149e+002
3.147682e+003,4.519568e+002
3.148646e+003,4.548852e+002
3.149610e+003,4.600888e+002
3.150574e+003,4.601806e+002
3.151539e+003,4.582367e+002
3.152503e+003,4.574548e+002
3.153467e+003,4.572363e+002
3.154431e+003,4.564113e+002
3.155396e+003,4.571382e+002
3.156360e+003,4.609561e+002
3.157324e+003,4.659853e+002
3.158288e+003,4.708721e+002
3.159252e+003,4.747884e+002
3.160217e+003,4.771543e+002
3.161181e+003,4.782238e+002
3.162145e+003,4.777830e+002
3.163109e+003,4.771709e+002
3.164074e+003,4.766151e+002
3.165038e+003,4.766999e+002
3.166002e+003,4.775529e+002
3.166966e+003,4.796175e+002
3.167931e+003,4.825610e+002
3.168895e+003,4.819963e+002
3.169859e+003,4.779772e+002
3.170823e+003,4.805921e+002
3.171788e+003,4.882818e+002
3.172752e+003,4.926472e+002
3.173716e+003,4.943876e+002
3.174680e+003,4.943608e+002
3.175645e+003,4.938539e+002
3.176609e+003,4.942669e+002
3.177573e+003,4.953380e+002
3.178537e+003,4.969413e+002
3.179501e+003,4.982405e+002
3.180466e+003,4.979491e+002
3.181430e+003,4.972169e+002
3.182394e+003,4.971688e+002
3.183358e+003,4.970360e+002
3.184323e+003,4.953745e+002
3.185287e+003,4.969914e+002
3.186251e+003,5.030318e+002
3.187215e+003,5.076837e+002
3.188179e+003,5.088116e+002
3.189144e+003,5.063257e+002
3.190108e+003,5.001653e+002
3.191072e+003,4.972083e+002
3.192036e+003,4.988996e+002
3.193001e+003,4.999056e+002
3.193965e+003,5.003751e+002
3.194929e+003,5.010757e+002
3.195893e+003,5.023904e+002
3.196858e+003,5.065958e+002
3.197822e+003,5.107105e+002
3.198786e+003,5.074989e+002
3.199750e+003,5.026979e+002
3.200715e+003,5.048195e+002
3.201679e+003,5.098426e+002
3.202643e+003,5.114613e+002
3.203607e+003,5.107433e+002
3.204572e+003,5.059832e+002
3.205536e+003,5.037794e+002
3.206500e+003,5.083265e+002
3.207464e+003,5.121943e+002
3.208428e+003,5.130226e+002
3.209393e+003,5.131787e+002
3.210357e+003,5.137914e+002
3.211321e+003,5.152644e+002
3.212285e+003,5.180486e+002
3.213250e+003,5.198757e+002
3.214214e+003,5.205756e+002
3.215178e+003,5.198525e+002
3.216142e+003,5.185214e+002
3.217106e+003,5.203920e+002
3.218071e+003,5.251078e+002
3.219035e+003,5.338058e+002
3.219999e+003,5.415529e+002
3.220963e+003,5.388305e+002
3.221928e+003,5.316865e+002
3.222892e+003,5.313207e+002
3.223856e+003,5.339446e+002
3.224820e+003,5.332554e+002
3.225785e+003,5.323416e+002
3.226749e+003,5.339780e+002
3.227713e+003,5.356960e+002
3.228677e+003,5.364943e+002
3.229642e+003,5.377499e+002
3.230606e+003,5.399670e+002
3.231570e+003,5.424042e+002
3.232534e+003,5.447088e+002
3.233499e+003,5.471118e+002
3.234463e+003,5.506226e+002
3.235427e+003,5.495593e+002
3.236391e+003,5.442122e+002
3.237355e+003,5.424368e+002
3.238320e+003,5.433951e+002
3.239284e+003,5.420285e+002
3.240248e+003,5.409450e+002
3.241212e+003,5.497585e+002
3.242177e+003,5.599618e+002
3.243141e+003,5.579531e+002
3.244105e+003,5.513969e+002
3.245069e+003,5.551412e+002
3.246033e+003,5.614072e+002
3.246998e+003,5.629504e+002
3.247962e+003,5.628073e+002
3.248926e+003,5.616418e+002
3.249890e+003,5.622603e+002
3.250855e+003,5.653757e+002
3.251819e+003,5.669110e+002
3.252783e+003,5.655807e+002
3.253747e+003,5.662661e+002
3.254712e+003,5.713665e+002
3.255676e+003,5.724351e+002
3.256640e+003,5.688834e+002
3.257604e+003,5.698135e+002
3.258569e+003,5.740026e+002
3.259533e+003,5.777145e+002
3.260497e+003,5.805591e+002
3.261461e+003,5.829724e+002
3.262426e+003,5.840307e+002
3.263390e+003,5.821074e+002
3.264354e+003,5.805376e+002
3.265318e+003,5.848563e+002
3.266282e+003,5.897471e+002
3.267247e+003,5.886996e+002
3.268211e+003,5.875652e+002
3.269175e+003,5.877927e+002
3.270139e+003,5.926291e+002
3.271104e+003,6.023870e+002
3.272068e+003,6.039805e+002
3.273032e+003,5.959328e+002
3.273996e+003,5.935223e+002
3.274960e+003,6.010557e+002
3.275925e+003,6.072103e+002
3.276889e+003,6.114018e+002
3.277853e+003,6.122578e+002
3.278817e+003,6.115771e+002
3.279782e+003,6.157105e+002
3.280746e+003,6.204337e+002
3.281710e+003,6.189738e+002
3.282674e+003,6.149559e+002
3.283639e+003,6.114342e+002
3.284603e+003,6.094313e+002
3.285567e+003,6.101656e+002
3.286531e+003,6.109637e+002
3.287496e+003,6.069111e+002
3.288460e+003,6.076116e+002
3.289424e+003,6.178071e+002
3.290388e+003,6.229703e+002
3.291353e+003,6.218594e+002
3.292317e+003,6.199327e+002
3.293281e+003,6.187372e+002
3.294245e+003,6.187087e+002
3.295209e+003,6.201558e+002
3.296174e+003,6.238791e+002
3.297138e+003,6.285941e+002
3.298102e+003,6.284793e+002
3.299066e+003,6.258771e+002
3.300031e+003,6.242897e+002
3.300995e+003,6.237514e+002
3.301959e+003,6.237922e+002
3.302923e+003,6.262291e+002
3.303887e+003,6.322229e+002
3.304852e+003,6.366588e+002
3.305816e+003,6.365645e+002
3.306780e+003,6.362497e+002
3.307744e+003,6.384647e+002
3.308709e+003,6.386584e+002
3.309673e+003,6.359301e+002
3.310637e+003,6.378021e+002
3.311601e+003,6.431555e+002
3.312566e+003,6.462685e+002
3.313530e+003,6.472592e+002
3.314494e+003,6.482798e+002
3.315458e+003,6.483738e+002
3.316423e+003,6.451631e+002
3.317387e+003,6.417743e+002
3.318351e+003,6.445800e+002
3.319315e+003,6.486713e+002
3.320280e+003,6.493611e+002
3.321244e+003,6.488552e+002
3.322208e+003,6.476472e+002
3.323172e+003,6.467693e+002
3.324136e+003,6.467470e+002
3.325101e+003,6.513439e+002
3.326065e+003,6.604017e+002
3.327029e+003,6.636210e+002
3.327993e+003,6.586767e+002
3.328958e+003,6.587170e+002
3.329922e+003,6.625272e+002
3.330886e+003,6.595417e+002
3.331850e+003,6.548344e+002
3.332814e+003,6.586743e+002
3.333779e+003,6.644844e+002
3.334743e+003,6.653443e+002
3.335707e+003,6.645095e+002
3.336671e+003,6.641902e+002
3.337636e+003,6.664405e+002
3.338600e+003,6.742012e+002
3.339564e+003,6.800265e+002
3.340528e+003,6.788554e+002
3.341493e+003,6.797018e+002
3.342457e+003,6.828544e+002
3.343421e+003,6.861861e+002
3.344385e+003,6.888274e+002
3.345350e+003,6.892077e+002
3.346314e+003,6.875593e+002
3.347278e+003,6.841987e+002
3.348242e+003,6.820504e+002
3.349207e+003,6.892775e+002
3.350171e+003,6.984970e+002
3.351135e+003,6.968883e+002
3.352099e+003,6.937158e+002
3.353063e+003,6.948887e+002
3.354028e+003,6.967053e+002
3.354992e+003,6.982450e+002
3.355956e+003,7.006765e+002
3.356920e+003,7.041974e+002
3.357885e+003,7.074456e+002
3.358849e+003,7.098983e+002
3.359813e+003,7.073358e+002
3.360777e+003,7.002890e+002
3.361741e+003,7.053890e+002
3.362706e+003,7.160010e+002
3.363670e+003,7.186086e+002
3.364634e+003,7.173257e+002
3.365598e+003,7.172466e+002
3.366563e+003,7.175135e+002
3.367527e+003,7.173378e+002
3.368491e+003,7.181318e+002
3.369455e+003,7.211357e+002
3.370420e+003,7.251185e+002
3.371384e+003,7.314425e+002
3.372348e+003,7.335087e+002
3.373312e+003,7.313069e+002
3.374277e+003,7.313172e+002
3.375241e+003,7.331287e+002
3.376205e+003,7.330815e+002
3.377169e+003,7.313846e+002
3.378134e+003,7.297121e+002
3.379098e+003,7.287874e+002
3.380062e+003,7.299926e+002
3.381026e+003,7.324180e+002
3.381990e+003,7.352216e+002
3.382955e+003,7.380965e+002
3.383919e+003,7.417750e+002
3.384883e+003,7.427156e+002
3.385847e+003,7.402813e+002
3.386812e+003,7.371691e+002
3.387776e+003,7.344869e+002
3.388740e+003,7.331392e+002
3.389704e+003,7.333600e+002
3.390668e+003,7.339147e+002
3.391633e+003,7.348365e+002
3.392597e+003,7.368286e+002
3.393561e+003,7.387832e+002
3.394525e+003,7.382734e+002
3.395490e+003,7.380394e+002
3.396454e+003,7.401290e+002
3.397418e+003,7.426207e+002
3.398382e+003,7.444377e+002
3.399347e+003,7.462632e+002
3.400311e+003,7.484666e+002
3.401275e+003,7.511198e+002
3.402239e+003,7.543992e+002
3.403204e+003,7.570242e+002
3.404168e+003,7.589512e+002
3.405132e+003,7.605009e+002
3.406096e+003,7.610456e+002
3.407061e+003,7.578097e+002
3.408025e+003,7.546169e+002
3.408989e+003,7.557632e+002
3.409953e+003,7.597181e+002
3.410917e+003,7.659787e+002
3.411882e+003,7.702332e+002
3.412846e+003,7.678005e+002
3.413810e+003,7.654846e+002
3.414774e+003,7.642844e+002
3.415739e+003,7.637529e+002
3.416703e+003,7.634479e+002
3.417667e+003,7.608582e+002
3.418631e+003,7.577305e+002
3.419595e+003,7.618065e+002
3.420560e+003,7.694352e+002
3.421524e+003,7.705522e+002
3.422488e+003,7.686503e+002
3.423452e+003,7.674107e+002
3.424417e+003,7.690250e+002
3.425381e+003,7.766249e+002
3.426345e+003,7.820845e+002
3.427309e+003,7.832684e+002
3.428274e+003,7.822626e+002
3.429238e+003,7.800692e+002
3.430202e+003,7.775224e+002
3.431166e+003,7.750029e+002
3.432131e+003,7.777225e+002
3.433095e+003,7.834082e+002
3.434059e+003,7.806480e+002
3.435023e+003,7.755523e+002
3.435988e+003,7.750014e+002
3.436952e+003,7.795424e+002
3.437916e+003,7.898066e+002
3.438880e+003,7.970951e+002
3.439844e+003,7.963036e+002
3.440809e+003,7.946364e+002
3.441773e+003,7.956223e+002
3.442737e+003,7.980154e+002
3.443701e+003,8.016931e+002
3.444666e+003,8.006069e+002
3.445630e+003,7.971461e+002
3.446594e+003,7.986705e+002
3.447558e+003,8.019429e+002
3.448522e+003,8.007988e+002
3.449487e+003,8.001580e+002
3.450451e+003,8.051685e+002
3.451415e+003,8.106496e+002
3.452379e+003,8.108762e+002
3.453344e+003,8.119653e+002
3.454308e+003,8.161386e+002
3.455272e+003,8.174802e+002
3.456236e+003,8.164280e+002
3.457201e+003,8.192292e+002
3.458165e+003,8.244134e+002
3.459129e+003,8.245677e+002
3.460093e+003,8.226209e+002
3.461058e+003,8.243708e+002
3.462022e+003,8.279705e+002
3.462986e+003,8.307253e+002
3.463950e+003,8.334277e+002
3.464915e+003,8.369020e+002
3.465879e+003,8.401035e+002
3.466843e+003,8.427995e+002
3.467807e+003,8.422258e+002
3.468771e+003,8.393748e+002
3.469736e+003,8.417170e+002
3.470700e+003,8.490609e+002
3.471664e+003,8.524849e+002
3.472628e+003,8.536448e+002
3.473593e+003,8.577363e+002
3.474557e+003,8.625125e+002
3.475521e+003,8.672783e+002
3.476485e+003,8.678536e+002
3.477449e+003,8.624628e+002
3.478414e+003,8.587514e+002
3.479378e+003,8.594854e+002
3.480342e+003,8.633632e+002
3.481306e+003,8.699262e+002
3.482271e+003,8.753935e+002
3.483235e+003,8.792874e+002
3.484199e+003,8.750943e+002
3.485163e+003,8.696353e+002
3.486128e+003,8.765560e+002
3.487092e+003,8.845700e+002
3.488056e+003,8.851556e+002
3.489020e+003,8.847977e+002
3.489985e+003,8.868729e+002
3.490949e+003,8.890609e+002
3.491913e+003,8.902486e+002
3.492877e+003,8.905577e+002
3.493842e+003,8.900385e+002
3.494806e+003,8.897950e+002
3.495770e+003,8.907670e+002
3.496734e+003,8.966801e+002
3.497698e+003,9.033432e+002
3.498663e+003,9.058594e+002
3.499627e+003,9.069644e+002
3.500591e+003,0.000000e+000
