9.974011e+001,3.148428e+002
1.007043e+002,3.145056e+002
1.016686e+002,3.160475e+002
1.026328e+002,3.191882e+002
1.035970e+002,3.216725e+002
1.045613e+002,3.253117e+002
1.055255e+002,3.287617e+002
1.064897e+002,3.290691e+002
1.074540e+002,3.222852e+002
1.084182e+002,3.156489e+002
1.093824e+002,3.086151e+002
1.103467e+002,3.013469e+002
1.113109e+002,2.949806e+002
1.122751e+002,2.938833e+002
1.132394e+002,2.954168e+002
1.142036e+002,2.982809e+002
1.151678e+002,3.012466e+002
1.161321e+002,3.028373e+002
1.170963e+002,3.008373e+002
1.180605e+002,2.961940e+002
1.190248e+002,2.905778e+002
1.199890e+002,2.858889e+002
1.209532e+002,2.837724e+002
1.219175e+002,2.822248e+002
1.228817e+002,2.812597e+002
1.238459e+002,2.805749e+002
1.248102e+002,2.796192e+002
1.257744e+002,2.763634e+002
1.267386e+002,2.747028e+002
1.277029e+002,2.755552e+002
1.286671e+002,2.780829e+002
1.296313e+002,2.793481e+002
1.305956e+002,2.770576e+002
1.315598e+002,2.737332e+002
1.325240e+002,2.699156e+002
1.334883e+002,2.662124e+002
1.344525e+002,2.636350e+002
1.354167e+002,2.644557e+002
1.363810e+002,2.667431e+002
1.373452e+002,2.681158e+002
1.383094e+002,2.665350e+002
1.392737e+002,2.613705e+002
1.402379e+002,2.579420e+002
1.412021e+002,2.567691e+002
1.421664e+002,2.563458e+002
1.431306e+002,2.544415e+002
1.440948e+002,2.493074e+002
1.450591e+002,2.460013e+002
1.460233e+002,2.448654e+002
1.469875e+002,2.453331e+002
1.479518e+002,2.461527e+002
1.489160e+002,2.470623e+002
1.498802e+002,2.470237e+002
1.508445e+002,2.460686e+002
1.518087e+002,2.446509e+002
1.527729e+002,2.438037e+002
1.537372e+002,2.441391e+002
1.547014e+002,2.441295e+002
1.556656e+002,2.431864e+002
1.566299e+002,2.411555e+002
1.575941e+002,2.385550e+002
1.585583e+002,2.367657e+002
1.595226e+002,2.360441e+002
1.604868e+002,2.359026e+002
1.614510e+002,2.356912e+002
1.624153e+002,2.344492e+002
1.633795e+002,2.321438e+002
1.643438e+002,2.293073e+002
1.653080e+002,2.265633e+002
1.662722e+002,2.244948e+002
1.672365e+002,2.232089e+002
1.682007e+002,2.223112e+002
1.691649e+002,2.221715e+002
1.701292e+002,2.228103e+002
1.710934e+002,2.240358e+002
1.720576e+002,2.249686e+002
1.730219e+002,2.255691e+002
1.739861e+002,2.260152e+002
1.749503e+002,2.259664e+002
1.759146e+002,2.248259e+002
1.768788e+002,2.228042e+002
1.778430e+002,2.225392e+002
1.788073e+002,2.222467e+002
1.797715e+002,2.206231e+002
1.807357e+002,2.166365e+002
1.817000e+002,2.150752e+002
1.826642e+002,2.149783e+002
1.836284e+002,2.152645e+002
1.845927e+002,2.153609e+002
1.855569e+002,2.153011e+002
1.865211e+002,2.136627e+002
1.874854e+002,2.110442e+002
1.884496e+002,2.083054e+002
1.894138e+002,2.061255e+002
1.903781e+002,2.049440e+002
1.913423e+002,2.049201e+002
1.923065e+002,2.054064e+002
1.932708e+002,2.057309e+002
1.942350e+002,2.053734e+002
1.951992e+002,2.040553e+002
1.961635e+002,2.023413e+002
1.971277e+002,2.010177e+002
1.980919e+002,2.005618e+002
1.990562e+002,2.010228e+002
2.000204e+002,2.011758e+002
2.009846e+002,1.998885e+002
2.019489e+002,1.986054e+002
2.029131e+002,1.981588e+002
2.038773e+002,1.988926e+002
2.048416e+002,1.996331e+002
2.058058e+002,1.986584e+002
2.067700e+002,1.972310e+002
2.077343e+002,1.966175e+002
2.086985e+002,1.977057e+002
2.096627e+002,1.992799e+002
2.106270e+002,1.963093e+002
2.115912e+002,1.898217e+002
2.125554e+002,1.837122e+002
2.135197e+002,1.824842e+002
2.144839e+002,1.890477e+002
2.154481e+002,1.925438e+002
2.164124e+002,1.927865e+002
2.173766e+002,1.911882e+002
2.183408e+002,1.895735e+002
2.193051e+002,1.869420e+002
2.202693e+002,1.856117e+002
2.212335e+002,1.868507e+002
2.221978e+002,1.893575e+002
2.231620e+002,1.907051e+002
2.241262e+002,1.879036e+002
2.250904e+002,1.850520e+002
2.260547e+002,1.836097e+002
2.270189e+002,1.836094e+002
2.279831e+002,1.844965e+002
2.289474e+002,1.869967e+002
2.299116e+002,1.911678e+002
2.308758e+002,1.938589e+002
2.318401e+002,1.938202e+002
2.328043e+002,1.910952e+002
2.337685e+002,1.899945e+002
2.347328e+002,1.893198e+002
2.356970e+002,1.881877e+002
2.366612e+002,1.865353e+002
2.376255e+002,1.847370e+002
2.385897e+002,1.835838e+002
2.395539e+002,1.834946e+002
2.405182e+002,1.839682e+002
2.414824e+002,1.849732e+002
2.424466e+002,1.865981e+002
2.434109e+002,1.880041e+002
2.443751e+002,1.870619e+002
2.453393e+002,1.847818e+002
2.463036e+002,1.828789e+002
2.472678e+002,1.833642e+002
2.482320e+002,1.869151e+002
2.491963e+002,1.889236e+002
2.501605e+002,1.886068e+002
2.511247e+002,1.872374e+002
2.520890e+002,1.869572e+002
2.530532e+002,1.884565e+002
2.540174e+002,1.901578e+002
2.549817e+002,1.930369e+002
2.559459e+002,1.967283e+002
2.569102e+002,2.002297e+002
2.578744e+002,2.021339e+002
2.588386e+002,2.013675e+002
2.598029e+002,1.976167e+002
2.607671e+002,1.923568e+002
2.617313e+002,1.880136e+002
2.626956e+002,1.884927e+002
2.636598e+002,1.917404e+002
2.646240e+002,1.942805e+002
2.655883e+002,1.950255e+002
2.665525e+002,1.940862e+002
2.675167e+002,1.941327e+002
2.684810e+002,1.963805e+002
2.694452e+002,1.988478e+002
2.704094e+002,2.011696e+002
2.713737e+002,2.033453e+002
2.723379e+002,2.049067e+002
2.733021e+002,2.040306e+002
2.742664e+002,2.029718e+002
2.752306e+002,2.031725e+002
2.761948e+002,2.051579e+002
2.771591e+002,2.067508e+002
2.781233e+002,2.064415e+002
2.790875e+002,2.057843e+002
2.800518e+002,2.052027e+002
2.810160e+002,2.048441e+002
2.819802e+002,2.045745e+002
2.829445e+002,2.049216e+002
2.839087e+002,2.057064e+002
2.848729e+002,2.062797e+002
2.858372e+002,2.061441e+002
2.868014e+002,2.051927e+002
2.877656e+002,2.048421e+002
2.887299e+002,2.035074e+002
2.896941e+002,2.023329e+002
2.906583e+002,2.029151e+002
2.916226e+002,2.073559e+002
2.925868e+002,2.108397e+002
2.935510e+002,2.121885e+002
2.945153e+002,2.124008e+002
2.954795e+002,2.120822e+002
2.964437e+002,2.112334e+002
2.974080e+002,2.095735e+002
2.983722e+002,2.078785e+002
2.993364e+002,2.065356e+002
3.003007e+002,2.056182e+002
3.012649e+002,2.049204e+002
3.022291e+002,2.043239e+002
3.031934e+002,2.054203e+002
3.041576e+002,2.087490e+002
3.051218e+002,2.133183e+002
3.060861e+002,2.172916e+002
3.070503e+002,2.196118e+002
3.080145e+002,2.200723e+002
3.089788e+002,2.185264e+002
3.099430e+002,2.166023e+002
3.109072e+002,2.167019e+002
3.118715e+002,2.220389e+002
3.128357e+002,2.273714e+002
3.137999e+002,2.290773e+002
3.147642e+002,2.275116e+002
3.157284e+002,2.244393e+002
3.166926e+002,2.226620e+002
3.176569e+002,2.228645e+002
3.186211e+002,2.243955e+002
3.195853e+002,2.268680e+002
3.205496e+002,2.295720e+002
3.215138e+002,2.311140e+002
3.224780e+002,2.306184e+002
3.234423e+002,2.294733e+002
3.244065e+002,2.275773e+002
3.253707e+002,2.252793e+002
3.263350e+002,2.235711e+002
3.272992e+002,2.244214e+002
3.282634e+002,2.252882e+002
3.292277e+002,2.252755e+002
3.301919e+002,2.245364e+002
3.311561e+002,2.240370e+002
3.321204e+002,2.238706e+002
3.330846e+002,2.242376e+002
3.340488e+002,2.259620e+002
3.350131e+002,2.287776e+002
3.359773e+002,2.317457e+002
3.369415e+002,2.327921e+002
3.379058e+002,2.328220e+002
3.388700e+002,2.337939e+002
3.398342e+002,2.365336e+002
3.407985e+002,2.405734e+002
3.417627e+002,2.422862e+002
3.427269e+002,2.376762e+002
3.436912e+002,2.332403e+002
3.446554e+002,2.299543e+002
3.456196e+002,2.282847e+002
3.465839e+002,2.289746e+002
3.475481e+002,2.356420e+002
3.485123e+002,2.424360e+002
3.494765e+002,2.473058e+002
3.504408e+002,2.493481e+002
3.514050e+002,2.487975e+002
3.523692e+002,2.453223e+002
3.533335e+002,2.410416e+002
3.542977e+002,2.372174e+002
3.552619e+002,2.345751e+002
3.562262e+002,2.337204e+002
3.571904e+002,2.369545e+002
3.581546e+002,2.446972e+002
3.591189e+002,2.506432e+002
3.600831e+002,2.520058e+002
3.610473e+002,2.488044e+002
3.620116e+002,2.464808e+002
3.629758e+002,2.463652e+002
3.639400e+002,2.474308e+002
3.649043e+002,2.505740e+002
3.658685e+002,2.552078e+002
3.668327e+002,2.584558e+002
3.677970e+002,2.562564e+002
3.687612e+002,2.532400e+002
3.697254e+002,2.508275e+002
3.706897e+002,2.496544e+002
3.716539e+002,2.497772e+002
3.726181e+002,2.522604e+002
3.735824e+002,2.555165e+002
3.745466e+002,2.561844e+002
3.755108e+002,2.530968e+002
3.764751e+002,2.473985e+002
3.774393e+002,2.463447e+002
3.784035e+002,2.548878e+002
3.793678e+002,2.610715e+002
3.803320e+002,2.617068e+002
3.812962e+002,2.577712e+002
3.822605e+002,2.550695e+002
3.832247e+002,2.578387e+002
3.841889e+002,2.602430e+002
3.851532e+002,2.598253e+002
3.861174e+002,2.566285e+002
3.870816e+002,2.527754e+002
3.880459e+002,2.510104e+002
3.890101e+002,2.506050e+002
3.899743e+002,2.511456e+002
3.909386e+002,2.527067e+002
3.919028e+002,2.553777e+002
3.928670e+002,2.587459e+002
3.938313e+002,2.620400e+002
3.947955e+002,2.647354e+002
3.957597e+002,2.680013e+002
3.967240e+002,2.714176e+002
3.976882e+002,2.718575e+002
3.986524e+002,2.644288e+002
3.996167e+002,2.593195e+002
4.005809e+002,2.576564e+002
4.015451e+002,2.587174e+002
4.025094e+002,2.608829e+002
4.034736e+002,2.656375e+002
4.044378e+002,2.706548e+002
4.054021e+002,2.734078e+002
4.063663e+002,2.737024e+002
4.073305e+002,2.722481e+002
4.082948e+002,2.702683e+002
4.092590e+002,2.679499e+002
4.102232e+002,2.671459e+002
4.111875e+002,2.683443e+002
4.121517e+002,2.701508e+002
4.131159e+002,2.694250e+002
4.140802e+002,2.639676e+002
4.150444e+002,2.622562e+002
4.160086e+002,2.652960e+002
4.169729e+002,2.711865e+002
4.179371e+002,2.768432e+002
4.189013e+002,2.794124e+002
4.198656e+002,2.801840e+002
4.208298e+002,2.825484e+002
4.217940e+002,2.849701e+002
4.227583e+002,2.847653e+002
4.237225e+002,2.788130e+002
4.246867e+002,2.712942e+002
4.256510e+002,2.689382e+002
4.266152e+002,2.705430e+002
4.275794e+002,2.738118e+002
4.285437e+002,2.763589e+002
4.295079e+002,2.783755e+002
4.304721e+002,2.789531e+002
4.314364e+002,2.778597e+002
4.324006e+002,2.770162e+002
4.333648e+002,2.778583e+002
4.343291e+002,2.800940e+002
4.352933e+002,2.820119e+002
4.362575e+002,2.849341e+002
4.372218e+002,2.871976e+002
4.381860e+002,2.867639e+002
4.391502e+002,2.822887e+002
4.401145e+002,2.776661e+002
4.410787e+002,2.790280e+002
4.420429e+002,2.839855e+002
4.430072e+002,2.891240e+002
4.439714e+002,2.917650e+002
4.449356e+002,2.913297e+002
4.458999e+002,2.909329e+002
4.468641e+002,2.913895e+002
4.478283e+002,2.912437e+002
4.487926e+002,2.893368e+002
4.497568e+002,2.856578e+002
4.507210e+002,2.860764e+002
4.516853e+002,2.923563e+002
4.526495e+002,2.973214e+002
4.536137e+002,2.980479e+002
4.545780e+002,2.946497e+002
4.555422e+002,2.910624e+002
4.565064e+002,2.919666e+002
4.574707e+002,2.943835e+002
4.584349e+002,2.961058e+002
4.593991e+002,2.961666e+002
4.603634e+002,2.946785e+002
4.613276e+002,2.925083e+002
4.622918e+002,2.904909e+002
4.632561e+002,2.906158e+002
4.642203e+002,2.941481e+002
4.651845e+002,2.996314e+002
4.661488e+002,3.016852e+002
4.671130e+002,2.941647e+002
4.680772e+002,2.883013e+002
4.690415e+002,2.859915e+002
4.700057e+002,2.863673e+002
4.709699e+002,2.873326e+002
4.719342e+002,2.885132e+002
4.728984e+002,2.884679e+002
4.738626e+002,2.853234e+002
4.748269e+002,2.806849e+002
4.757911e+002,2.770280e+002
4.767553e+002,2.768965e+002
4.777196e+002,2.802694e+002
4.786838e+002,2.845869e+002
4.796480e+002,2.887787e+002
4.806123e+002,2.910365e+002
4.815765e+002,2.898456e+002
4.825407e+002,2.851927e+002
4.835050e+002,2.818475e+002
4.844692e+002,2.793558e+002
4.854334e+002,2.783239e+002
4.863977e+002,2.789944e+002
4.873619e+002,2.808969e+002
4.883261e+002,2.805286e+002
4.892904e+002,2.773622e+002
4.902546e+002,2.756140e+002
4.912188e+002,2.778733e+002
4.921831e+002,2.840754e+002
4.931473e+002,2.903497e+002
4.941115e+002,2.896597e+002
4.950758e+002,2.861064e+002
4.960400e+002,2.837741e+002
4.970042e+002,2.843791e+002
4.979685e+002,2.874210e+002
4.989327e+002,2.896124e+002
4.998969e+002,2.893181e+002
5.008612e+002,2.876336e+002
5.018254e+002,2.838245e+002
5.027896e+002,2.784713e+002
5.037539e+002,2.736728e+002
5.047181e+002,2.706910e+002
5.056823e+002,2.701093e+002
5.066466e+002,2.733541e+002
5.076108e+002,2.784321e+002
5.085750e+002,2.821388e+002
5.095393e+002,2.811529e+002
5.105035e+002,2.778248e+002
5.114677e+002,2.771380e+002
5.124320e+002,2.788696e+002
5.133962e+002,2.813376e+002
5.143605e+002,2.824648e+002
5.153247e+002,2.814543e+002
5.162889e+002,2.823342e+002
5.172532e+002,2.864819e+002
5.182174e+002,2.914512e+002
5.191816e+002,2.951218e+002
5.201459e+002,2.967010e+002
5.211101e+002,2.990001e+002
5.220743e+002,3.025022e+002
5.230386e+002,3.054070e+002
5.240028e+002,3.077932e+002
5.249670e+002,3.105347e+002
5.259313e+002,3.149450e+002
5.268955e+002,3.204774e+002
5.278597e+002,3.252502e+002
5.288240e+002,3.286998e+002
5.297882e+002,3.310881e+002
5.307524e+002,3.334319e+002
5.317167e+002,3.379079e+002
5.326809e+002,3.462434e+002
5.336451e+002,3.531628e+002
5.346094e+002,3.553943e+002
5.355736e+002,3.547794e+002
5.365378e+002,3.566454e+002
5.375021e+002,3.657737e+002
5.384663e+002,3.738381e+002
5.394305e+002,3.791983e+002
5.403948e+002,3.833783e+002
5.413590e+002,3.878855e+002
5.423232e+002,3.930453e+002
5.432875e+002,3.954591e+002
5.442517e+002,3.930090e+002
5.452159e+002,3.906855e+002
5.461802e+002,3.921154e+002
5.471444e+002,3.981447e+002
5.481086e+002,4.055901e+002
5.490729e+002,4.077755e+002
5.500371e+002,4.075292e+002
5.510013e+002,4.081532e+002
5.519656e+002,4.110332e+002
5.529298e+002,4.157592e+002
5.538940e+002,4.197815e+002
5.548583e+002,4.201885e+002
5.558225e+002,4.187473e+002
5.567867e+002,4.160043e+002
5.577510e+002,4.125649e+002
5.587152e+002,4.091500e+002
5.596794e+002,4.067780e+002
5.606437e+002,4.054167e+002
5.616079e+002,4.035440e+002
5.625721e+002,4.015031e+002
5.635364e+002,4.000361e+002
5.645006e+002,3.997255e+002
5.654648e+002,3.995720e+002
5.664291e+002,3.981636e+002
5.673933e+002,3.977037e+002
5.683575e+002,3.979280e+002
5.693218e+002,3.970736e+002
5.702860e+002,3.929777e+002
5.712502e+002,3.880115e+002
5.722145e+002,3.806636e+002
5.731787e+002,3.749479e+002
5.741429e+002,3.755742e+002
5.751072e+002,3.817583e+002
5.760714e+002,3.858109e+002
5.770356e+002,3.800998e+002
5.779999e+002,3.741229e+002
5.789641e+002,3.715007e+002
5.799283e+002,3.711907e+002
5.808926e+002,3.708132e+002
5.818568e+002,3.682469e+002
5.828210e+002,3.635020e+002
5.837853e+002,3.591265e+002
5.847495e+002,3.557905e+002
5.857137e+002,3.532682e+002
5.866780e+002,3.514314e+002
5.876422e+002,3.508349e+002
5.886064e+002,3.480526e+002
5.895707e+002,3.408387e+002
5.905349e+002,3.348141e+002
5.914991e+002,3.328562e+002
5.924634e+002,3.345913e+002
5.934276e+002,3.356935e+002
5.943918e+002,3.339279e+002
5.953560e+002,3.315033e+002
5.963203e+002,3.283684e+002
5.972845e+002,3.246462e+002
5.982487e+002,3.208802e+002
5.992130e+002,3.183937e+002
6.001772e+002,3.186964e+002
6.011414e+002,3.199628e+002
6.021057e+002,3.204335e+002
6.030699e+002,3.187192e+002
6.040341e+002,3.139107e+002
6.049984e+002,3.056829e+002
6.059626e+002,2.990385e+002
6.069268e+002,2.973976e+002
6.078911e+002,2.969986e+002
6.088553e+002,2.942487e+002
6.098195e+002,2.876619e+002
6.107838e+002,2.802086e+002
6.117480e+002,2.750976e+002
6.127122e+002,2.715052e+002
6.136765e+002,2.681335e+002
6.146407e+002,2.644669e+002
6.156049e+002,2.609124e+002
6.165692e+002,2.590267e+002
6.175334e+002,2.590056e+002
6.184976e+002,2.580796e+002
6.194619e+002,2.568090e+002
6.204261e+002,2.549559e+002
6.213903e+002,2.512704e+002
6.223546e+002,2.432445e+002
6.233188e+002,2.378901e+002
6.242830e+002,2.355539e+002
6.252473e+002,2.341237e+002
6.262115e+002,2.332900e+002
6.271757e+002,2.331302e+002
6.281400e+002,2.324226e+002
6.291042e+002,2.288341e+002
6.300684e+002,2.254407e+002
6.310327e+002,2.241693e+002
6.319969e+002,2.249590e+002
6.329611e+002,2.264631e+002
6.339254e+002,2.268876e+002
6.348896e+002,2.249723e+002
6.358538e+002,2.204313e+002
6.368181e+002,2.133661e+002
6.377823e+002,2.063217e+002
6.387465e+002,2.021884e+002
6.397108e+002,2.022928e+002
6.406750e+002,2.016997e+002
6.416392e+002,1.973886e+002
6.426035e+002,1.929950e+002
6.435677e+002,1.916949e+002
6.445319e+002,1.936710e+002
6.454962e+002,1.947397e+002
6.464604e+002,1.899744e+002
6.474246e+002,1.848354e+002
6.483889e+002,1.826274e+002
6.493531e+002,1.825773e+002
6.503173e+002,1.824205e+002
6.512816e+002,1.799488e+002
6.522458e+002,1.755073e+002
6.532100e+002,1.703672e+002
6.541743e+002,1.647957e+002
6.551385e+002,1.599894e+002
6.561027e+002,1.560988e+002
6.570670e+002,1.523392e+002
6.580312e+002,1.509985e+002
6.589954e+002,1.548166e+002
6.599597e+002,1.563892e+002
6.609239e+002,1.530333e+002
6.618881e+002,1.463623e+002
6.628524e+002,1.407831e+002
6.638166e+002,1.390633e+002
6.647808e+002,1.397514e+002
6.657451e+002,1.414828e+002
6.667093e+002,1.431094e+002
6.676735e+002,1.430895e+002
6.686378e+002,1.401647e+002
6.696020e+002,1.345735e+002
6.705662e+002,1.308682e+002
6.715305e+002,1.293125e+002
6.724947e+002,1.276417e+002
6.734589e+002,1.257545e+002
6.744232e+002,1.242203e+002
6.753874e+002,1.222214e+002
6.763516e+002,1.156486e+002
6.773159e+002,1.120532e+002
6.782801e+002,1.146257e+002
6.792443e+002,1.199409e+002
6.802086e+002,1.227202e+002
6.811728e+002,1.197394e+002
6.821370e+002,1.131873e+002
6.831013e+002,1.063035e+002
6.840655e+002,1.003181e+002
6.850297e+002,9.644580e+001
6.859940e+002,9.510809e+001
6.869582e+002,9.560651e+001
6.879224e+002,9.620105e+001
6.888867e+002,9.737231e+001
6.898509e+002,9.667004e+001
6.908151e+002,9.351453e+001
6.917794e+002,8.928296e+001
6.927436e+002,8.596393e+001
6.937078e+002,8.297302e+001
6.946721e+002,8.165521e+001
6.956363e+002,8.433246e+001
6.966005e+002,8.818414e+001
6.975648e+002,8.970544e+001
6.985290e+002,8.696417e+001
6.994932e+002,8.164716e+001
7.004575e+002,7.797406e+001
7.014217e+002,7.550397e+001
7.023859e+002,7.297559e+001
7.033502e+002,7.039380e+001
7.043144e+002,6.836536e+001
7.052786e+002,6.752051e+001
7.062429e+002,6.735376e+001
7.072071e+002,6.659399e+001
7.081713e+002,6.632062e+001
7.091356e+002,6.625177e+001
7.100998e+002,6.543451e+001
7.110640e+002,6.311401e+001
7.120283e+002,6.075458e+001
7.129925e+002,5.866608e+001
7.139567e+002,5.754694e+001
7.149210e+002,5.895728e+001
7.158852e+002,6.218683e+001
7.168494e+002,6.480542e+001
7.178137e+002,6.382019e+001
7.187779e+002,6.013538e+001
7.197421e+002,5.741168e+001
7.207064e+002,5.510681e+001
7.216706e+002,5.365515e+001
7.226348e+002,5.452197e+001
7.235991e+002,5.906543e+001
7.245633e+002,6.107220e+001
7.255275e+002,5.658447e+001
7.264918e+002,5.155859e+001
7.274560e+002,4.857043e+001
7.284202e+002,4.766760e+001
7.293845e+002,4.718414e+001
7.303487e+002,4.575336e+001
7.313129e+002,4.424139e+001
7.322772e+002,4.355011e+001
7.332414e+002,4.331702e+001
7.342056e+002,4.306256e+001
7.351699e+002,4.268591e+001
7.361341e+002,4.279755e+001
7.370983e+002,4.467926e+001
7.380626e+002,4.715149e+001
7.390268e+002,4.844342e+001
7.399910e+002,4.825287e+001
7.409553e+002,4.804266e+001
7.419195e+002,5.036633e+001
7.428837e+002,5.695868e+001
7.438480e+002,5.908362e+001
7.448122e+002,5.475537e+001
7.457764e+002,4.910156e+001
7.467407e+002,4.539398e+001
7.477049e+002,4.476807e+001
7.486691e+002,4.706592e+001
7.496334e+002,5.310193e+001
7.505976e+002,5.882416e+001
7.515618e+002,6.056555e+001
7.525261e+002,5.829022e+001
7.534903e+002,5.452728e+001
7.544545e+002,5.285504e+001
7.554188e+002,5.501715e+001
7.563830e+002,5.760107e+001
7.573472e+002,5.872375e+001
7.583115e+002,5.824939e+001
7.592757e+002,5.684326e+001
7.602399e+002,5.565973e+001
7.612042e+002,5.579517e+001
7.621684e+002,5.488660e+001
7.631326e+002,5.514246e+001
7.640969e+002,5.918286e+001
7.650611e+002,6.521490e+001
7.660253e+002,7.081110e+001
7.669896e+002,7.470135e+001
7.679538e+002,7.803583e+001
7.689180e+002,8.044659e+001
7.698823e+002,7.997772e+001
7.708465e+002,7.758972e+001
7.718107e+002,7.467944e+001
7.727750e+002,7.255029e+001
7.737392e+002,7.208636e+001
7.747034e+002,7.444312e+001
7.756677e+002,7.681323e+001
7.766319e+002,7.864856e+001
7.775961e+002,7.940521e+001
7.785604e+002,7.797327e+001
7.795246e+002,7.410638e+001
7.804888e+002,7.104559e+001
7.814531e+002,7.296564e+001
7.824173e+002,7.621301e+001
7.833815e+002,7.938995e+001
7.843458e+002,8.218988e+001
7.853100e+002,8.394769e+001
7.862742e+002,8.315118e+001
7.872385e+002,7.864197e+001
7.882027e+002,7.663629e+001
7.891669e+002,7.829315e+001
7.901312e+002,7.893768e+001
7.910954e+002,7.651599e+001
7.920596e+002,7.251605e+001
7.930239e+002,7.099115e+001
7.939881e+002,7.364404e+001
7.949523e+002,7.588165e+001
7.959166e+002,7.592010e+001
7.968808e+002,7.446295e+001
7.978450e+002,7.242188e+001
7.988093e+002,7.035144e+001
7.997735e+002,6.874768e+001
8.007377e+002,6.876959e+001
8.017020e+002,6.977216e+001
8.026662e+002,7.087054e+001
8.036304e+002,7.173395e+001
8.045947e+002,7.233551e+001
8.055589e+002,7.280817e+001
8.065231e+002,7.348181e+001
8.074874e+002,7.251746e+001
8.084516e+002,6.926196e+001
8.094158e+002,6.541827e+001
8.103801e+002,6.320483e+001
8.113443e+002,6.330872e+001
8.123085e+002,6.352747e+001
8.132728e+002,5.934180e+001
8.142370e+002,5.490485e+001
8.152012e+002,5.300250e+001
8.161655e+002,5.209216e+001
8.171297e+002,5.060834e+001
8.180939e+002,4.837653e+001
8.190582e+002,4.712537e+001
8.200224e+002,4.775916e+001
8.209866e+002,4.934253e+001
8.219509e+002,4.979785e+001
8.229151e+002,4.700092e+001
8.238793e+002,4.227319e+001
8.248436e+002,3.940845e+001
8.258078e+002,4.001599e+001
8.267720e+002,3.972571e+001
8.277363e+002,3.641241e+001
8.287005e+002,3.224213e+001
8.296647e+002,2.913031e+001
8.306290e+002,2.788312e+001
8.315932e+002,2.814856e+001
8.325574e+002,2.946906e+001
8.335217e+002,3.144104e+001
8.344859e+002,3.339783e+001
8.354501e+002,3.464386e+001
8.364144e+002,3.424402e+001
8.373786e+002,3.169611e+001
8.383428e+002,2.756854e+001
8.393071e+002,2.406970e+001
8.402713e+002,2.061945e+001
8.412355e+002,1.871106e+001
8.421998e+002,1.904773e+001
8.431640e+002,2.036639e+001
8.441282e+002,2.107349e+001
8.450925e+002,2.076654e+001
8.460567e+002,1.996021e+001
8.470209e+002,1.867694e+001
8.479852e+002,1.703619e+001
8.489494e+002,1.504236e+001
8.499136e+002,1.315698e+001
8.508779e+002,1.235388e+001
8.518421e+002,1.376740e+001
8.528063e+002,1.712769e+001
8.537706e+002,1.857935e+001
8.547348e+002,1.805536e+001
8.556990e+002,1.680963e+001
8.566633e+002,1.480426e+001
8.576275e+002,1.188080e+001
8.585917e+002,9.370605e+000
8.595560e+002,8.251648e+000
8.605202e+002,8.043457e+000
8.614844e+002,9.512756e+000
8.624487e+002,1.180072e+001
8.634129e+002,1.325195e+001
8.643771e+002,1.269769e+001
8.653414e+002,1.071222e+001
8.663056e+002,9.968811e+000
8.672698e+002,1.137402e+001
8.682341e+002,1.266266e+001
8.691983e+002,1.254590e+001
8.701625e+002,1.235730e+001
8.711268e+002,1.437299e+001
8.720910e+002,1.888440e+001
8.730552e+002,1.928436e+001
8.740195e+002,1.756439e+001
8.749837e+002,1.666895e+001
8.759479e+002,1.498883e+001
8.769122e+002,1.298682e+001
8.778764e+002,1.280548e+001
8.788406e+002,1.568317e+001
8.798049e+002,1.732562e+001
8.807691e+002,1.567798e+001
8.817333e+002,1.314862e+001
8.826976e+002,1.086084e+001
8.836618e+002,9.257874e+000
8.846260e+002,8.730408e+000
8.855903e+002,1.004053e+001
8.865545e+002,1.312909e+001
8.875187e+002,1.519122e+001
8.884830e+002,1.644708e+001
8.894472e+002,1.706781e+001
8.904114e+002,1.760254e+001
8.913757e+002,1.805078e+001
8.923399e+002,1.683337e+001
8.933041e+002,9.828735e+000
8.942684e+002,4.209290e+000
8.952326e+002,4.373352e+000
8.961968e+002,7.285217e+000
8.971611e+002,9.714294e+000
8.981253e+002,1.074561e+001
8.990895e+002,1.243475e+001
9.000538e+002,1.813208e+001
9.010180e+002,2.605127e+001
9.019822e+002,2.818298e+001
9.029465e+002,2.300085e+001
9.039107e+002,1.713727e+001
9.048749e+002,1.729803e+001
9.058392e+002,2.372131e+001
9.068034e+002,2.749713e+001
9.077676e+002,2.570245e+001
9.087319e+002,2.487164e+001
9.096961e+002,2.722644e+001
9.106603e+002,3.175378e+001
9.116246e+002,3.669757e+001
9.125888e+002,4.085608e+001
9.135530e+002,4.366339e+001
9.145173e+002,4.389911e+001
9.154815e+002,4.213495e+001
9.164457e+002,4.030426e+001
9.174100e+002,3.961493e+001
9.183742e+002,3.966345e+001
9.193384e+002,3.913062e+001
9.203027e+002,3.753369e+001
9.212669e+002,3.867035e+001
9.222311e+002,4.130542e+001
9.231954e+002,4.291235e+001
9.241596e+002,4.499719e+001
9.251238e+002,4.770789e+001
9.260881e+002,4.957288e+001
9.270523e+002,4.930365e+001
9.280165e+002,4.982123e+001
9.289808e+002,5.527277e+001
9.299450e+002,6.185504e+001
9.309092e+002,6.556689e+001
9.318735e+002,6.590466e+001
9.328377e+002,6.524280e+001
9.338019e+002,6.651416e+001
9.347662e+002,6.963800e+001
9.357304e+002,7.208179e+001
9.366946e+002,7.497131e+001
9.376589e+002,7.873474e+001
9.386231e+002,8.274347e+001
9.395873e+002,8.608844e+001
9.405516e+002,8.837360e+001
9.415158e+002,9.026532e+001
9.424800e+002,9.184027e+001
9.434443e+002,9.364661e+001
9.444085e+002,9.515277e+001
9.453727e+002,9.480505e+001
9.463370e+002,9.329272e+001
9.473012e+002,9.329517e+001
9.482654e+002,9.728491e+001
9.492297e+002,1.030103e+002
9.501939e+002,1.045449e+002
9.511581e+002,1.038187e+002
9.521224e+002,1.025151e+002
9.530866e+002,9.946252e+001
9.540508e+002,9.564447e+001
9.550151e+002,9.473267e+001
9.559793e+002,9.764783e+001
9.569435e+002,9.802747e+001
9.579078e+002,9.663556e+001
9.588720e+002,9.614301e+001
9.598362e+002,9.740546e+001
9.608005e+002,9.955530e+001
9.617647e+002,1.005233e+002
9.627289e+002,9.841467e+001
9.636932e+002,9.580756e+001
9.646574e+002,9.986719e+001
9.656216e+002,1.074679e+002
9.665859e+002,1.103581e+002
9.675501e+002,1.055307e+002
9.685143e+002,9.736914e+001
9.694786e+002,9.363361e+001
9.704428e+002,9.544208e+001
9.714070e+002,1.001224e+002
9.723713e+002,1.069763e+002
9.733355e+002,1.120898e+002
9.742997e+002,1.152419e+002
9.752640e+002,1.176254e+002
9.762282e+002,1.196328e+002
9.771924e+002,1.199235e+002
9.781567e+002,1.198753e+002
9.791209e+002,1.238986e+002
9.800851e+002,1.294119e+002
9.810494e+002,1.324257e+002
9.820136e+002,1.324266e+002
9.829778e+002,1.316230e+002
9.839421e+002,1.321749e+002
9.849063e+002,1.327520e+002
9.858705e+002,1.329303e+002
9.868348e+002,1.353824e+002
9.877990e+002,1.393279e+002
9.887632e+002,1.444534e+002
9.897275e+002,1.499986e+002
9.906917e+002,1.549794e+002
9.916559e+002,1.581874e+002
9.926202e+002,1.571984e+002
9.935844e+002,1.501071e+002
9.945486e+002,1.423151e+002
9.955129e+002,1.372637e+002
9.964771e+002,1.358423e+002
9.974413e+002,1.377963e+002
9.984056e+002,1.424339e+002
9.993698e+002,1.484797e+002
1.000334e+003,1.507248e+002
1.001298e+003,1.482900e+002
1.002263e+003,1.455883e+002
1.003227e+003,1.411501e+002
1.004191e+003,1.376179e+002
1.005155e+003,1.389965e+002
1.006119e+003,1.457694e+002
1.007084e+003,1.512870e+002
1.008048e+003,1.525224e+002
1.009012e+003,1.534042e+002
1.009976e+003,1.535728e+002
1.010941e+003,1.535822e+002
1.011905e+003,1.561761e+002
1.012869e+003,1.627538e+002
1.013833e+003,1.696699e+002
1.014798e+003,1.678556e+002
1.015762e+003,1.555839e+002
1.016726e+003,1.513729e+002
1.017690e+003,1.600422e+002
1.018654e+003,1.715313e+002
1.019619e+003,1.781833e+002
1.020583e+003,1.802263e+002
1.021547e+003,1.826287e+002
1.022511e+003,1.865026e+002
1.023476e+003,1.896215e+002
1.024440e+003,1.923719e+002
1.025404e+003,1.952512e+002
1.026368e+003,1.980526e+002
1.027333e+003,2.009222e+002
1.028297e+003,2.049254e+002
1.029261e+003,2.113350e+002
1.030225e+003,2.186526e+002
1.031190e+003,2.210987e+002
1.032154e+003,2.204158e+002
1.033118e+003,2.198116e+002
1.034082e+003,2.189673e+002
1.035047e+003,2.179737e+002
1.036011e+003,2.180013e+002
1.036975e+003,2.187556e+002
1.037939e+003,2.198646e+002
1.038903e+003,2.231675e+002
1.039868e+003,2.285975e+002
1.040832e+003,2.357870e+002
1.041796e+003,2.435853e+002
1.042760e+003,2.506732e+002
1.043725e+003,2.563089e+002
1.044689e+003,2.603478e+002
1.045653e+003,2.628262e+002
1.046617e+003,2.637670e+002
1.047582e+003,2.644255e+002
1.048546e+003,2.657773e+002
1.049510e+003,2.697755e+002
1.050474e+003,2.780275e+002
1.051438e+003,2.894522e+002
1.052403e+003,2.986073e+002
1.053367e+003,3.039266e+002
1.054331e+003,3.065625e+002
1.055295e+003,3.054310e+002
1.056260e+003,3.042219e+002
1.057224e+003,3.068641e+002
1.058188e+003,3.141854e+002
1.059152e+003,3.239551e+002
1.060117e+003,3.340916e+002
1.061081e+003,3.435359e+002
1.062045e+003,3.480402e+002
1.063009e+003,3.461207e+002
1.063974e+003,3.437271e+002
1.064938e+003,3.446102e+002
1.065902e+003,3.490872e+002
1.066866e+003,3.558325e+002
1.067830e+003,3.643906e+002
1.068795e+003,3.709313e+002
1.069759e+003,3.753373e+002
1.070723e+003,3.787264e+002
1.071687e+003,3.820179e+002
1.072652e+003,3.859092e+002
1.073616e+003,3.896279e+002
1.074580e+003,3.919793e+002
1.075544e+003,3.937105e+002
1.076509e+003,3.979606e+002
1.077473e+003,4.050830e+002
1.078437e+003,4.131476e+002
1.079401e+003,4.233208e+002
1.080365e+003,4.314775e+002
1.081330e+003,4.314806e+002
1.082294e+003,4.248132e+002
1.083258e+003,4.248195e+002
1.084222e+003,4.379059e+002
1.085187e+003,4.475410e+002
1.086151e+003,4.481493e+002
1.087115e+003,4.464714e+002
1.088079e+003,4.464890e+002
1.089043e+003,4.485386e+002
1.090008e+003,4.511143e+002
1.090972e+003,4.532258e+002
1.091936e+003,4.553086e+002
1.092900e+003,4.594890e+002
1.093865e+003,4.651426e+002
1.094829e+003,4.667254e+002
1.095793e+003,4.623060e+002
1.096757e+003,4.563919e+002
1.097722e+003,4.528799e+002
1.098686e+003,4.507053e+002
1.099650e+003,4.477341e+002
1.100614e+003,4.461110e+002
1.101578e+003,4.447454e+002
1.102543e+003,4.416816e+002
1.103507e+003,4.385817e+002
1.104471e+003,4.368906e+002
1.105435e+003,4.356764e+002
1.106400e+003,4.325864e+002
1.107364e+003,4.267914e+002
1.108328e+003,4.200812e+002
1.109292e+003,4.135311e+002
1.110257e+003,4.075043e+002
1.111221e+003,4.043837e+002
1.112185e+003,4.050352e+002
1.113149e+003,4.053290e+002
1.114114e+003,4.007531e+002
1.115078e+003,3.917890e+002
1.116042e+003,3.824436e+002
1.117006e+003,3.719556e+002
1.117970e+003,3.641403e+002
1.118935e+003,3.611929e+002
1.119899e+003,3.595432e+002
1.120863e+003,3.559081e+002
1.121827e+003,3.498275e+002
1.122792e+003,3.427784e+002
1.123756e+003,3.351901e+002
1.124720e+003,3.259489e+002
1.125684e+003,3.185323e+002
1.126649e+003,3.158118e+002
1.127613e+003,3.125564e+002
1.128577e+003,3.042930e+002
1.129541e+003,2.946695e+002
1.130505e+003,2.905226e+002
1.131470e+003,2.925120e+002
1.132434e+003,2.919985e+002
1.133398e+003,2.851275e+002
1.134362e+003,2.784461e+002
1.135327e+003,2.739213e+002
1.136291e+003,2.706543e+002
1.137255e+003,2.679280e+002
1.138219e+003,2.654622e+002
1.139184e+003,2.628069e+002
1.140148e+003,2.588833e+002
1.141112e+003,2.524749e+002
1.142076e+003,2.431976e+002
1.143041e+003,2.308795e+002
1.144005e+003,2.221848e+002
1.144969e+003,2.218460e+002
1.145933e+003,2.250309e+002
1.146897e+003,2.235121e+002
1.147862e+003,2.155107e+002
1.148826e+003,2.079705e+002
1.149790e+003,2.059773e+002
1.150754e+003,2.045701e+002
1.151719e+003,2.009759e+002
1.152683e+003,1.959599e+002
1.153647e+003,1.904438e+002
1.154611e+003,1.850976e+002
1.155576e+003,1.805012e+002
1.156540e+003,1.769539e+002
1.157504e+003,1.730406e+002
1.158468e+003,1.678696e+002
1.159432e+003,1.623151e+002
1.160397e+003,1.576416e+002
1.161361e+003,1.560479e+002
1.162325e+003,1.558957e+002
1.163289e+003,1.535405e+002
1.164254e+003,1.479741e+002
1.165218e+003,1.436956e+002
1.166182e+003,1.451378e+002
1.167146e+003,1.472542e+002
1.168111e+003,1.440709e+002
1.169075e+003,1.380496e+002
1.170039e+003,1.343331e+002
1.171003e+003,1.344269e+002
1.171968e+003,1.348851e+002
1.172932e+003,1.310558e+002
1.173896e+003,1.231859e+002
1.174860e+003,1.179998e+002
1.175824e+003,1.155789e+002
1.176789e+003,1.136741e+002
1.177753e+003,1.139642e+002
1.178717e+003,1.140753e+002
1.179681e+003,1.105234e+002
1.180646e+003,1.039214e+002
1.181610e+003,9.979688e+001
1.182574e+003,1.021934e+002
1.183538e+003,1.056790e+002
1.184503e+003,1.027968e+002
1.185467e+003,9.634644e+001
1.186431e+003,9.012836e+001
1.187395e+003,8.455768e+001
1.188359e+003,8.004620e+001
1.189324e+003,7.865210e+001
1.190288e+003,8.079987e+001
1.191252e+003,7.982965e+001
1.192216e+003,7.142206e+001
1.193181e+003,6.574091e+001
1.194145e+003,6.412097e+001
1.195109e+003,6.313348e+001
1.196073e+003,6.270520e+001
1.197038e+003,6.248071e+001
1.198002e+003,6.043536e+001
1.198966e+003,5.512958e+001
1.199930e+003,4.919635e+001
1.200895e+003,4.672266e+001
1.201859e+003,4.722089e+001
1.202823e+003,4.870380e+001
1.203787e+003,5.112030e+001
1.204751e+003,5.211694e+001
1.205716e+003,4.939502e+001
1.206680e+003,4.449475e+001
1.207644e+003,4.156415e+001
1.208608e+003,4.085071e+001
1.209573e+003,3.989722e+001
1.210537e+003,4.009399e+001
1.211501e+003,4.026965e+001
1.212465e+003,3.937323e+001
1.213430e+003,3.834143e+001
1.214394e+003,3.740997e+001
1.215358e+003,3.578906e+001
1.216322e+003,3.298334e+001
1.217286e+003,2.998730e+001
1.218251e+003,2.760620e+001
1.219215e+003,2.516028e+001
1.220179e+003,2.351013e+001
1.221143e+003,2.268463e+001
1.222108e+003,2.169031e+001
1.223072e+003,2.210510e+001
1.224036e+003,2.604565e+001
1.225000e+003,3.213605e+001
1.225965e+003,3.458246e+001
1.226929e+003,2.984772e+001
1.227893e+003,2.317212e+001
1.228857e+003,2.116034e+001
1.229822e+003,2.298431e+001
1.230786e+003,2.635785e+001
1.231750e+003,2.938745e+001
1.232714e+003,2.995776e+001
1.233678e+003,2.642645e+001
1.234643e+003,2.004608e+001
1.235607e+003,1.689886e+001
1.236571e+003,2.151758e+001
1.237535e+003,2.376349e+001
1.238500e+003,2.067303e+001
1.239464e+003,1.698901e+001
1.240428e+003,1.360394e+001
1.241392e+003,1.043054e+001
1.242357e+003,8.292053e+000
1.243321e+003,8.318115e+000
1.244285e+003,1.058966e+001
1.245249e+003,1.580792e+001
1.246214e+003,2.149872e+001
1.247178e+003,2.147803e+001
1.248142e+003,1.624969e+001
1.249106e+003,1.316406e+001
1.250070e+003,1.655542e+001
1.251035e+003,2.174451e+001
1.251999e+003,2.032605e+001
1.252963e+003,1.166290e+001
1.253927e+003,6.909607e+000
1.254892e+003,9.534546e+000
1.255856e+003,1.296539e+001
1.256820e+003,1.741266e+001
1.257784e+003,1.984674e+001
1.258749e+003,1.591547e+001
1.259713e+003,7.929871e+000
1.260677e+003,2.637756e+000
1.261641e+003,3.925171e+000
1.262605e+003,8.703430e+000
1.263570e+003,1.221381e+001
1.264534e+003,1.460687e+001
1.265498e+003,1.583850e+001
1.266462e+003,1.626849e+001
1.267427e+003,1.558093e+001
1.268391e+003,1.099707e+001
1.269355e+003,4.749268e+000
1.270319e+003,2.434753e+000
1.271284e+003,5.377197e+000
1.272248e+003,7.805908e+000
1.273212e+003,8.249207e+000
1.274176e+003,9.301208e+000
1.275141e+003,8.652710e+000
1.276105e+003,6.315369e+000
1.277069e+003,5.145447e+000
1.278033e+003,6.322327e+000
1.278997e+003,8.271851e+000
1.279962e+003,9.621643e+000
1.280926e+003,1.151141e+001
1.281890e+003,1.442786e+001
1.282854e+003,1.459601e+001
1.283819e+003,1.319830e+001
1.284783e+003,1.120099e+001
1.285747e+003,9.601013e+000
1.286711e+003,1.005829e+001
1.287676e+003,1.249255e+001
1.288640e+003,1.591736e+001
1.289604e+003,1.923914e+001
1.290568e+003,2.092792e+001
1.291532e+003,1.958057e+001
1.292497e+003,1.629626e+001
1.293461e+003,1.391382e+001
1.294425e+003,1.299213e+001
1.295389e+003,1.320343e+001
1.296354e+003,1.407843e+001
1.297318e+003,1.516724e+001
1.298282e+003,1.645343e+001
1.299246e+003,1.760065e+001
1.300211e+003,1.750171e+001
1.301175e+003,1.698022e+001
1.302139e+003,1.681732e+001
1.303103e+003,1.370557e+001
1.304068e+003,1.096246e+001
1.305032e+003,1.295306e+001
1.305996e+003,1.734302e+001
1.306960e+003,1.895471e+001
1.307924e+003,1.641260e+001
1.308889e+003,1.379468e+001
1.309853e+003,1.537518e+001
1.310817e+003,1.874750e+001
1.311781e+003,1.823285e+001
1.312746e+003,1.598761e+001
1.313710e+003,1.588312e+001
1.314674e+003,1.839697e+001
1.315638e+003,2.114087e+001
1.316603e+003,2.068433e+001
1.317567e+003,1.714368e+001
1.318531e+003,1.491492e+001
1.319495e+003,1.762921e+001
1.320459e+003,2.230872e+001
1.321424e+003,2.349689e+001
1.322388e+003,2.186011e+001
1.323352e+003,2.116406e+001
1.324316e+003,2.143671e+001
1.325281e+003,2.101050e+001
1.326245e+003,1.913379e+001
1.327209e+003,1.618817e+001
1.328173e+003,1.190961e+001
1.329138e+003,6.311401e+000
1.330102e+003,3.784180e+000
1.331066e+003,7.271729e+000
1.332030e+003,1.135120e+001
1.332995e+003,1.325360e+001
1.333959e+003,1.414441e+001
1.334923e+003,1.479541e+001
1.335887e+003,1.513818e+001
1.336851e+003,1.543811e+001
1.337816e+003,1.633636e+001
1.338780e+003,1.792938e+001
1.339744e+003,1.918097e+001
1.340708e+003,1.881818e+001
1.341673e+003,1.585059e+001
1.342637e+003,8.044678e+000
1.343601e+003,3.651367e+000
1.344565e+003,7.355103e+000
1.345530e+003,1.328094e+001
1.346494e+003,1.670734e+001
1.347458e+003,1.817450e+001
1.348422e+003,2.031384e+001
1.349386e+003,2.333398e+001
1.350351e+003,2.415436e+001
1.351315e+003,2.054150e+001
1.352279e+003,1.583240e+001
1.353243e+003,1.453326e+001
1.354208e+003,1.606836e+001
1.355172e+003,1.677905e+001
1.356136e+003,1.422113e+001
1.357100e+003,1.057745e+001
1.358065e+003,9.383362e+000
1.359029e+003,1.088837e+001
1.359993e+003,1.278638e+001
1.360957e+003,1.612445e+001
1.361922e+003,1.853058e+001
1.362886e+003,1.854132e+001
1.363850e+003,1.809912e+001
1.364814e+003,1.625592e+001
1.365778e+003,1.402173e+001
1.366743e+003,1.414642e+001
1.367707e+003,1.707660e+001
1.368671e+003,2.003210e+001
1.369635e+003,2.054553e+001
1.370600e+003,1.999426e+001
1.371564e+003,2.038525e+001
1.372528e+003,2.026984e+001
1.373492e+003,2.102533e+001
1.374457e+003,2.339386e+001
1.375421e+003,2.425464e+001
1.376385e+003,2.228925e+001
1.377349e+003,1.934735e+001
1.378313e+003,1.692517e+001
1.379278e+003,1.513208e+001
1.380242e+003,1.474585e+001
1.381206e+003,1.734192e+001
1.382170e+003,2.119476e+001
1.383135e+003,2.229285e+001
1.384099e+003,2.173413e+001
1.385063e+003,2.256592e+001
1.386027e+003,2.376648e+001
1.386992e+003,2.330804e+001
1.387956e+003,2.107996e+001
1.388920e+003,1.901202e+001
1.389884e+003,1.911108e+001
1.390849e+003,2.160590e+001
1.391813e+003,2.514941e+001
1.392777e+003,2.845752e+001
1.393741e+003,2.852673e+001
1.394705e+003,2.575232e+001
1.395670e+003,2.339142e+001
1.396634e+003,2.205603e+001
1.397598e+003,2.065320e+001
1.398562e+003,1.875952e+001
1.399527e+003,1.717267e+001
1.400491e+003,1.687543e+001
1.401455e+003,1.841461e+001
1.402419e+003,2.175421e+001
1.403384e+003,2.279022e+001
1.404348e+003,1.691791e+001
1.405312e+003,1.113446e+001
1.406276e+003,9.204895e+000
1.407240e+003,1.152197e+001
1.408205e+003,1.729462e+001
1.409169e+003,2.275684e+001
1.410133e+003,2.335077e+001
1.411097e+003,1.850372e+001
1.412062e+003,1.317780e+001
1.413026e+003,1.304779e+001
1.413990e+003,1.816974e+001
1.414954e+003,2.385303e+001
1.415919e+003,2.892126e+001
1.416883e+003,3.119031e+001
1.417847e+003,2.660065e+001
1.418811e+003,2.238757e+001
1.419776e+003,2.368195e+001
1.420740e+003,2.772876e+001
1.421704e+003,3.073828e+001
1.422668e+003,3.250970e+001
1.423632e+003,3.301660e+001
1.424597e+003,3.155322e+001
1.425561e+003,2.935535e+001
1.426525e+003,2.742841e+001
1.427489e+003,2.619879e+001
1.428454e+003,2.603168e+001
1.429418e+003,2.687128e+001
1.430382e+003,2.865143e+001
1.431346e+003,3.088367e+001
1.432311e+003,3.168219e+001
1.433275e+003,3.044891e+001
1.434239e+003,2.925018e+001
1.435203e+003,2.819202e+001
1.436167e+003,2.391907e+001
1.437132e+003,2.180359e+001
1.438096e+003,2.467889e+001
1.439060e+003,2.828271e+001
1.440024e+003,3.398987e+001
1.440989e+003,3.997998e+001
1.441953e+003,4.062299e+001
1.442917e+003,3.440851e+001
1.443881e+003,2.715680e+001
1.444846e+003,2.544604e+001
1.445810e+003,2.867297e+001
1.446774e+003,3.072028e+001
1.447738e+003,2.937054e+001
1.448703e+003,2.821942e+001
1.449667e+003,2.808929e+001
1.450631e+003,2.798853e+001
1.451595e+003,2.848584e+001
1.452559e+003,2.982410e+001
1.453524e+003,3.142474e+001
1.454488e+003,3.320050e+001
1.455452e+003,3.606830e+001
1.456416e+003,4.010956e+001
1.457381e+003,4.270007e+001
1.458345e+003,4.056897e+001
1.459309e+003,3.412366e+001
1.460273e+003,2.853540e+001
1.461238e+003,2.537842e+001
1.462202e+003,2.563556e+001
1.463166e+003,3.172943e+001
1.464130e+003,3.797137e+001
1.465094e+003,3.847369e+001
1.466059e+003,3.501660e+001
1.467023e+003,3.343793e+001
1.467987e+003,3.534717e+001
1.468951e+003,3.698853e+001
1.469916e+003,3.686969e+001
1.470880e+003,3.725671e+001
1.471844e+003,3.764191e+001
1.472808e+003,3.608441e+001
1.473773e+003,3.478827e+001
1.474737e+003,3.539575e+001
1.475701e+003,3.585333e+001
1.476665e+003,3.473145e+001
1.477630e+003,3.459021e+001
1.478594e+003,3.814117e+001
1.479558e+003,4.337299e+001
1.480522e+003,4.570557e+001
1.481486e+003,4.521387e+001
1.482451e+003,4.363623e+001
1.483415e+003,4.079620e+001
1.484379e+003,3.782471e+001
1.485343e+003,3.453107e+001
1.486308e+003,3.264331e+001
1.487272e+003,3.597394e+001
1.488236e+003,4.434436e+001
1.489200e+003,5.069781e+001
1.490165e+003,4.870081e+001
1.491129e+003,4.185376e+001
1.492093e+003,3.954315e+001
1.493057e+003,4.294427e+001
1.494021e+003,4.509827e+001
1.494986e+003,4.501917e+001
1.495950e+003,4.566833e+001
1.496914e+003,4.713434e+001
1.497878e+003,4.810999e+001
1.498843e+003,4.787103e+001
1.499807e+003,4.731403e+001
1.500771e+003,4.793170e+001
1.501735e+003,4.987891e+001
1.502700e+003,5.141046e+001
1.503664e+003,5.060199e+001
1.504628e+003,4.827814e+001
1.505592e+003,4.894098e+001
1.506557e+003,5.553809e+001
1.507521e+003,5.984052e+001
1.508485e+003,5.757123e+001
1.509449e+003,5.649176e+001
1.510413e+003,5.925177e+001
1.511378e+003,6.149335e+001
1.512342e+003,6.032080e+001
1.513306e+003,5.697729e+001
1.514270e+003,5.360437e+001
1.515235e+003,5.078265e+001
1.516199e+003,4.814526e+001
1.517163e+003,4.573132e+001
1.518127e+003,4.392804e+001
1.519092e+003,4.254053e+001
1.520056e+003,4.076190e+001
1.521020e+003,3.960486e+001
1.521984e+003,3.891406e+001
1.522948e+003,3.874365e+001
1.523913e+003,4.119513e+001
1.524877e+003,4.449426e+001
1.525841e+003,4.545978e+001
1.526805e+003,4.491376e+001
1.527770e+003,4.599677e+001
1.528734e+003,4.889502e+001
1.529698e+003,5.053278e+001
1.530662e+003,4.946759e+001
1.531627e+003,4.687030e+001
1.532591e+003,4.358215e+001
1.533555e+003,3.958472e+001
1.534519e+003,3.627014e+001
1.535484e+003,3.254034e+001
1.536448e+003,3.189294e+001
1.537412e+003,3.779749e+001
1.538376e+003,4.420197e+001
1.539340e+003,4.449115e+001
1.540305e+003,4.110413e+001
1.541269e+003,4.133173e+001
1.542233e+003,4.640454e+001
1.543197e+003,4.998553e+001
1.544162e+003,4.750641e+001
1.545126e+003,4.158051e+001
1.546090e+003,3.830377e+001
1.547054e+003,3.966541e+001
1.548019e+003,4.205817e+001
1.548983e+003,4.170032e+001
1.549947e+003,4.001648e+001
1.550911e+003,3.827075e+001
1.551875e+003,3.663263e+001
1.552840e+003,3.657281e+001
1.553804e+003,3.873859e+001
1.554768e+003,4.048761e+001
1.555732e+003,3.971167e+001
1.556697e+003,3.894220e+001
1.557661e+003,4.106293e+001
1.558625e+003,4.380988e+001
1.559589e+003,4.354114e+001
1.560554e+003,4.137036e+001
1.561518e+003,3.908691e+001
1.562482e+003,3.638354e+001
1.563446e+003,3.560193e+001
1.564411e+003,4.020209e+001
1.565375e+003,4.658545e+001
1.566339e+003,5.031848e+001
1.567303e+003,5.146790e+001
1.568267e+003,5.052344e+001
1.569232e+003,4.719757e+001
1.570196e+003,4.484949e+001
1.571160e+003,4.602173e+001
1.572124e+003,4.673804e+001
1.573089e+003,4.196399e+001
1.574053e+003,3.650696e+001
1.575017e+003,3.796271e+001
1.575981e+003,4.567133e+001
1.576946e+003,5.006122e+001
1.577910e+003,4.464380e+001
1.578874e+003,3.614899e+001
1.579838e+003,3.442560e+001
1.580802e+003,3.895331e+001
1.581767e+003,4.220087e+001
1.582731e+003,4.183130e+001
1.583695e+003,4.066364e+001
1.584659e+003,3.959064e+001
1.585624e+003,3.810834e+001
1.586588e+003,3.729529e+001
1.587552e+003,3.857892e+001
1.588516e+003,4.289514e+001
1.589481e+003,4.864368e+001
1.590445e+003,5.139960e+001
1.591409e+003,4.879486e+001
1.592373e+003,4.447528e+001
1.593338e+003,4.209814e+001
1.594302e+003,4.194067e+001
1.595266e+003,4.392023e+001
1.596230e+003,4.815051e+001
1.597194e+003,5.232428e+001
1.598159e+003,5.575360e+001
1.599123e+003,5.691632e+001
1.600087e+003,5.351392e+001
1.601051e+003,4.983942e+001
1.602016e+003,5.020532e+001
1.602980e+003,5.192285e+001
1.603944e+003,4.988263e+001
1.604908e+003,4.423456e+001
1.605873e+003,4.008569e+001
1.606837e+003,4.038354e+001
1.607801e+003,4.422876e+001
1.608765e+003,5.081989e+001
1.609729e+003,5.791650e+001
1.610694e+003,5.832843e+001
1.611658e+003,5.113861e+001
1.612622e+003,4.440485e+001
1.613586e+003,4.124768e+001
1.614551e+003,4.194781e+001
1.615515e+003,4.616632e+001
1.616479e+003,5.079108e+001
1.617443e+003,5.325897e+001
1.618408e+003,5.372974e+001
1.619372e+003,5.364972e+001
1.620336e+003,5.422772e+001
1.621300e+003,5.465302e+001
1.622265e+003,5.246051e+001
1.623229e+003,4.870789e+001
1.624193e+003,4.793286e+001
1.625157e+003,5.000916e+001
1.626121e+003,5.128992e+001
1.627086e+003,5.095490e+001
1.628050e+003,5.113208e+001
1.629014e+003,5.326605e+001
1.629978e+003,5.484772e+001
1.630943e+003,5.410803e+001
1.631907e+003,5.174774e+001
1.632871e+003,4.973145e+001
1.633835e+003,4.918872e+001
1.634800e+003,4.838635e+001
1.635764e+003,4.496692e+001
1.636728e+003,4.236841e+001
1.637692e+003,4.531696e+001
1.638656e+003,5.160797e+001
1.639621e+003,5.625385e+001
1.640585e+003,5.893616e+001
1.641549e+003,5.807330e+001
1.642513e+003,5.317035e+001
1.643478e+003,4.985492e+001
1.644442e+003,5.171356e+001
1.645406e+003,5.573071e+001
1.646370e+003,5.902899e+001
1.647335e+003,6.091583e+001
1.648299e+003,6.132281e+001
1.649263e+003,6.036340e+001
1.650227e+003,5.885004e+001
1.651192e+003,5.692596e+001
1.652156e+003,5.540283e+001
1.653120e+003,5.630023e+001
1.654084e+003,5.941443e+001
1.655048e+003,6.149847e+001
1.656013e+003,6.166199e+001
1.656977e+003,6.053876e+001
1.657941e+003,5.617352e+001
1.658905e+003,5.140979e+001
1.659870e+003,5.371771e+001
1.660834e+003,6.060590e+001
1.661798e+003,6.342401e+001
1.662762e+003,6.042090e+001
1.663727e+003,5.636884e+001
1.664691e+003,5.176318e+001
1.665655e+003,4.899188e+001
1.666619e+003,5.199298e+001
1.667583e+003,5.821033e+001
1.668548e+003,6.188995e+001
1.669512e+003,6.192462e+001
1.670476e+003,5.999249e+001
1.671440e+003,5.780096e+001
1.672405e+003,5.586035e+001
1.673369e+003,5.257300e+001
1.674333e+003,4.940771e+001
1.675297e+003,5.078662e+001
1.676262e+003,5.573376e+001
1.677226e+003,5.930267e+001
1.678190e+003,6.081012e+001
1.679154e+003,6.192230e+001
1.680119e+003,6.396216e+001
1.681083e+003,6.470618e+001
1.682047e+003,6.214319e+001
1.683011e+003,5.782477e+001
1.683975e+003,5.384058e+001
1.684940e+003,5.129468e+001
1.685904e+003,5.178839e+001
1.686868e+003,5.565912e+001
1.687832e+003,6.107703e+001
1.688797e+003,6.612726e+001
1.689761e+003,6.904840e+001
1.690725e+003,6.815277e+001
1.691689e+003,6.383521e+001
1.692654e+003,6.085327e+001
1.693618e+003,6.213593e+001
1.694582e+003,6.366321e+001
1.695546e+003,6.120099e+001
1.696510e+003,5.760126e+001
1.697475e+003,5.583563e+001
1.698439e+003,5.663257e+001
1.699403e+003,6.164386e+001
1.700367e+003,6.936841e+001
1.701332e+003,7.315051e+001
1.702296e+003,6.978406e+001
1.703260e+003,6.508319e+001
1.704224e+003,6.558203e+001
1.705189e+003,6.937476e+001
1.706153e+003,7.186658e+001
1.707117e+003,7.276392e+001
1.708081e+003,7.004706e+001
1.709046e+003,6.550220e+001
1.710010e+003,6.421802e+001
1.710974e+003,6.375201e+001
1.711938e+003,6.430792e+001
1.712902e+003,6.763989e+001
1.713867e+003,7.049963e+001
1.714831e+003,7.007404e+001
1.715795e+003,6.774744e+001
1.716759e+003,6.589252e+001
1.717724e+003,6.521863e+001
1.718688e+003,6.630933e+001
1.719652e+003,7.023669e+001
1.720616e+003,7.519922e+001
1.721581e+003,7.581012e+001
1.722545e+003,7.125513e+001
1.723509e+003,6.956232e+001
1.724473e+003,7.308575e+001
1.725438e+003,7.675507e+001
1.726402e+003,7.996436e+001
1.727366e+003,8.009595e+001
1.728330e+003,7.400366e+001
1.729294e+003,6.632983e+001
1.730259e+003,6.245966e+001
1.731223e+003,6.285107e+001
1.732187e+003,6.568079e+001
1.733151e+003,6.960913e+001
1.734116e+003,7.230084e+001
1.735080e+003,7.251196e+001
1.736044e+003,7.181537e+001
1.737008e+003,7.098260e+001
1.737973e+003,6.927203e+001
1.738937e+003,6.810510e+001
1.739901e+003,6.809161e+001
1.740865e+003,6.670099e+001
1.741829e+003,6.211163e+001
1.742794e+003,5.814008e+001
1.743758e+003,5.866797e+001
1.744722e+003,6.189044e+001
1.745686e+003,6.528583e+001
1.746651e+003,6.844208e+001
1.747615e+003,7.046960e+001
1.748579e+003,7.041949e+001
1.749543e+003,6.975098e+001
1.750508e+003,6.936145e+001
1.751472e+003,7.017664e+001
1.752436e+003,7.332684e+001
1.753400e+003,7.676611e+001
1.754365e+003,7.660425e+001
1.755329e+003,7.320593e+001
1.756293e+003,7.128748e+001
1.757257e+003,7.306171e+001
1.758221e+003,7.570343e+001
1.759186e+003,7.688965e+001
1.760150e+003,7.763391e+001
1.761114e+003,7.740729e+001
1.762078e+003,7.359546e+001
1.763043e+003,7.247668e+001
1.764007e+003,7.660461e+001
1.764971e+003,7.791174e+001
1.765935e+003,7.791449e+001
1.766900e+003,7.741150e+001
1.767864e+003,7.463721e+001
1.768828e+003,7.127759e+001
1.769792e+003,6.925122e+001
1.770756e+003,6.882526e+001
1.771721e+003,6.886133e+001
1.772685e+003,6.822473e+001
1.773649e+003,6.778351e+001
1.774613e+003,6.976410e+001
1.775578e+003,7.400342e+001
1.776542e+003,7.768115e+001
1.777506e+003,8.026831e+001
1.778470e+003,7.971021e+001
1.779435e+003,7.375409e+001
1.780399e+003,6.882715e+001
1.781363e+003,6.823608e+001
1.782327e+003,6.891553e+001
1.783292e+003,6.754053e+001
1.784256e+003,6.502557e+001
1.785220e+003,6.451837e+001
1.786184e+003,6.554291e+001
1.787148e+003,6.446881e+001
1.788113e+003,6.049225e+001
1.789077e+003,5.757892e+001
1.790041e+003,5.812671e+001
1.791005e+003,5.850830e+001
1.791970e+003,5.467377e+001
1.792934e+003,5.010394e+001
1.793898e+003,5.129877e+001
1.794862e+003,5.712195e+001
1.795827e+003,6.114081e+001
1.796791e+003,6.174664e+001
1.797755e+003,6.083850e+001
1.798719e+003,5.922998e+001
1.799683e+003,5.865436e+001
1.800648e+003,6.050696e+001
1.801612e+003,6.352197e+001
1.802576e+003,6.661816e+001
1.803540e+003,6.962128e+001
1.804505e+003,6.854132e+001
1.805469e+003,6.296051e+001
1.806433e+003,6.006830e+001
1.807397e+003,6.005615e+001
1.808362e+003,6.131342e+001
1.809326e+003,6.417859e+001
1.810290e+003,6.734778e+001
1.811254e+003,6.977509e+001
1.812219e+003,7.117975e+001
1.813183e+003,7.013434e+001
1.814147e+003,6.576117e+001
1.815111e+003,6.075012e+001
1.816075e+003,5.910260e+001
1.817040e+003,6.035175e+001
1.818004e+003,6.015125e+001
1.818968e+003,5.856805e+001
1.819932e+003,5.962817e+001
1.820897e+003,6.080853e+001
1.821861e+003,6.236603e+001
1.822825e+003,6.778668e+001
1.823789e+003,7.037610e+001
1.824754e+003,6.813568e+001
1.825718e+003,6.661243e+001
1.826682e+003,6.760327e+001
1.827646e+003,6.889960e+001
1.828610e+003,6.829504e+001
1.829575e+003,6.638934e+001
1.830539e+003,6.597766e+001
1.831503e+003,6.827264e+001
1.832467e+003,7.083832e+001
1.833432e+003,7.185193e+001
1.834396e+003,7.126215e+001
1.835360e+003,7.001898e+001
1.836324e+003,6.960199e+001
1.837289e+003,6.948193e+001
1.838253e+003,6.791107e+001
1.839217e+003,6.612946e+001
1.840181e+003,6.552167e+001
1.841146e+003,6.509674e+001
1.842110e+003,6.476111e+001
1.843074e+003,6.442169e+001
1.844038e+003,6.138580e+001
1.845002e+003,5.542169e+001
1.845967e+003,5.495624e+001
1.846931e+003,6.541943e+001
1.847895e+003,7.216626e+001
1.848859e+003,6.898120e+001
1.849824e+003,6.497461e+001
1.850788e+003,6.708661e+001
1.851752e+003,6.908105e+001
1.852716e+003,6.490997e+001
1.853681e+003,6.000555e+001
1.854645e+003,6.164429e+001
1.855609e+003,6.866864e+001
1.856573e+003,7.461047e+001
1.857537e+003,7.590344e+001
1.858502e+003,7.385376e+001
1.859466e+003,7.138306e+001
1.860430e+003,7.054510e+001
1.861394e+003,7.153705e+001
1.862359e+003,7.286053e+001
1.863323e+003,7.299323e+001
1.864287e+003,7.152234e+001
1.865251e+003,7.049725e+001
1.866216e+003,7.245752e+001
1.867180e+003,7.488110e+001
1.868144e+003,7.437250e+001
1.869108e+003,7.076306e+001
1.870073e+003,6.464557e+001
1.871037e+003,5.791644e+001
1.872001e+003,5.586908e+001
1.872965e+003,5.975879e+001
1.873929e+003,6.410675e+001
1.874894e+003,6.743579e+001
1.875858e+003,6.843030e+001
1.876822e+003,6.668176e+001
1.877786e+003,6.513544e+001
1.878751e+003,6.607300e+001
1.879715e+003,6.821143e+001
1.880679e+003,6.866956e+001
1.881643e+003,6.760870e+001
1.882608e+003,6.791699e+001
1.883572e+003,7.040729e+001
1.884536e+003,7.237042e+001
1.885500e+003,7.129938e+001
1.886464e+003,6.800061e+001
1.887429e+003,6.492316e+001
1.888393e+003,6.354968e+001
1.889357e+003,6.534875e+001
1.890321e+003,6.989075e+001
1.891286e+003,7.186664e+001
1.892250e+003,6.946912e+001
1.893214e+003,6.531860e+001
1.894178e+003,6.091077e+001
1.895143e+003,5.902570e+001
1.896107e+003,6.145129e+001
1.897071e+003,6.562286e+001
1.898035e+003,6.660382e+001
1.899000e+003,6.310553e+001
1.899964e+003,6.071118e+001
1.900928e+003,6.584210e+001
1.901892e+003,7.129175e+001
1.902856e+003,7.160992e+001
1.903821e+003,7.082599e+001
1.904785e+003,7.007349e+001
1.905749e+003,6.791144e+001
1.906713e+003,6.519403e+001
1.907678e+003,6.317023e+001
1.908642e+003,6.052594e+001
1.909606e+003,5.735620e+001
1.910570e+003,5.761475e+001
1.911535e+003,6.309741e+001
1.912499e+003,6.809631e+001
1.913463e+003,6.543427e+001
1.914427e+003,5.740369e+001
1.915391e+003,5.267365e+001
1.916356e+003,5.265363e+001
1.917320e+003,5.363037e+001
1.918284e+003,5.589923e+001
1.919248e+003,6.098889e+001
1.920213e+003,6.778247e+001
1.921177e+003,7.120288e+001
1.922141e+003,6.910461e+001
1.923105e+003,6.567810e+001
1.924070e+003,6.451154e+001
1.925034e+003,6.508832e+001
1.925998e+003,6.666254e+001
1.926962e+003,6.924548e+001
1.927927e+003,7.075397e+001
1.928891e+003,7.274933e+001
1.929855e+003,7.185052e+001
1.930819e+003,6.295331e+001
1.931783e+003,5.527930e+001
1.932748e+003,5.588141e+001
1.933712e+003,5.903156e+001
1.934676e+003,5.846527e+001
1.935640e+003,5.576746e+001
1.936605e+003,5.442389e+001
1.937569e+003,5.427069e+001
1.938533e+003,5.418079e+001
1.939497e+003,5.528021e+001
1.940462e+003,5.744995e+001
1.941426e+003,5.778387e+001
1.942390e+003,5.695679e+001
1.943354e+003,5.848322e+001
1.944318e+003,5.978766e+001
1.945283e+003,5.508582e+001
1.946247e+003,4.723639e+001
1.947211e+003,4.648798e+001
1.948175e+003,5.518854e+001
1.949140e+003,6.313403e+001
1.950104e+003,6.315021e+001
1.951068e+003,5.887531e+001
1.952032e+003,5.557306e+001
1.952997e+003,5.403107e+001
1.953961e+003,5.492651e+001
1.954925e+003,5.844513e+001
1.955889e+003,6.012823e+001
1.956854e+003,5.998615e+001
1.957818e+003,5.886212e+001
1.958782e+003,5.527588e+001
1.959746e+003,5.462585e+001
1.960710e+003,5.799829e+001
1.961675e+003,6.034192e+001
1.962639e+003,5.979608e+001
1.963603e+003,5.817688e+001
1.964567e+003,5.669659e+001
1.965532e+003,5.553815e+001
1.966496e+003,5.550342e+001
1.967460e+003,5.693561e+001
1.968424e+003,5.836987e+001
1.969389e+003,5.935693e+001
1.970353e+003,5.966040e+001
1.971317e+003,5.955945e+001
1.972281e+003,5.880927e+001
1.973245e+003,5.629669e+001
1.974210e+003,5.374969e+001
1.975174e+003,5.387323e+001
1.976138e+003,5.652234e+001
1.977102e+003,6.037335e+001
1.978067e+003,6.415112e+001
1.979031e+003,6.582898e+001
1.979995e+003,6.419476e+001
1.980959e+003,6.060266e+001
1.981924e+003,5.717096e+001
1.982888e+003,5.481305e+001
1.983852e+003,5.509271e+001
1.984816e+003,5.735229e+001
1.985781e+003,5.832721e+001
1.986745e+003,5.915833e+001
1.987709e+003,5.895959e+001
1.988673e+003,5.510522e+001
1.989637e+003,5.086737e+001
1.990602e+003,4.815393e+001
1.991566e+003,4.664111e+001
1.992530e+003,4.831763e+001
1.993494e+003,5.404932e+001
1.994459e+003,5.864581e+001
1.995423e+003,6.026105e+001
1.996387e+003,6.166638e+001
1.997351e+003,6.332220e+001
1.998316e+003,6.229437e+001
1.999280e+003,5.774780e+001
2.000244e+003,5.455762e+001
2.001208e+003,5.482434e+001
2.002172e+003,5.701855e+001
2.003137e+003,5.961859e+001
2.004101e+003,6.126782e+001
2.005065e+003,6.154834e+001
2.006029e+003,6.097144e+001
2.006994e+003,5.932404e+001
2.007958e+003,5.509589e+001
2.008922e+003,5.083942e+001
2.009886e+003,5.123566e+001
2.010851e+003,5.386896e+001
2.011815e+003,5.427551e+001
2.012779e+003,5.368585e+001
2.013743e+003,5.506555e+001
2.014708e+003,5.729419e+001
2.015672e+003,5.712152e+001
2.016636e+003,5.517938e+001
2.017600e+003,5.641107e+001
2.018564e+003,6.207117e+001
2.019529e+003,6.562073e+001
2.020493e+003,6.171954e+001
2.021457e+003,5.486951e+001
2.022421e+003,5.128839e+001
2.023386e+003,4.992926e+001
2.024350e+003,5.032458e+001
2.025314e+003,5.264136e+001
2.026278e+003,5.308502e+001
2.027243e+003,5.132684e+001
2.028207e+003,5.239142e+001
2.029171e+003,5.814215e+001
2.030135e+003,6.362964e+001
2.031099e+003,6.551025e+001
2.032064e+003,6.447284e+001
2.033028e+003,6.082233e+001
2.033992e+003,5.405408e+001
2.034956e+003,4.961652e+001
2.035921e+003,5.197028e+001
2.036885e+003,5.333813e+001
2.037849e+003,5.139569e+001
2.038813e+003,5.363373e+001
2.039778e+003,5.978058e+001
2.040742e+003,6.125427e+001
2.041706e+003,5.541638e+001
2.042670e+003,4.945490e+001
2.043635e+003,4.810742e+001
2.044599e+003,4.984052e+001
2.045563e+003,5.338947e+001
2.046527e+003,5.827325e+001
2.047491e+003,6.009814e+001
2.048456e+003,5.782147e+001
2.049420e+003,5.619855e+001
2.050384e+003,5.366602e+001
2.051348e+003,5.108130e+001
2.052313e+003,5.052759e+001
2.053277e+003,5.144409e+001
2.054241e+003,5.441388e+001
2.055205e+003,5.874109e+001
2.056170e+003,6.229590e+001
2.057134e+003,6.304871e+001
2.058098e+003,6.046686e+001
2.059062e+003,5.627051e+001
2.060027e+003,5.274384e+001
2.060991e+003,5.011981e+001
2.061955e+003,4.935260e+001
2.062919e+003,5.216626e+001
2.063884e+003,5.549921e+001
2.064848e+003,5.780634e+001
2.065812e+003,5.978973e+001
2.066776e+003,5.926337e+001
2.067740e+003,5.605444e+001
2.068705e+003,5.256189e+001
2.069669e+003,5.003827e+001
2.070633e+003,5.001648e+001
2.071597e+003,5.250635e+001
2.072562e+003,5.324432e+001
2.073526e+003,4.980707e+001
2.074490e+003,4.666742e+001
2.075454e+003,4.769867e+001
2.076418e+003,5.091687e+001
2.077383e+003,5.485211e+001
2.078347e+003,5.742462e+001
2.079311e+003,5.214703e+001
2.080275e+003,4.214709e+001
2.081240e+003,3.801117e+001
2.082204e+003,4.059082e+001
2.083168e+003,4.440540e+001
2.084132e+003,4.590942e+001
2.085096e+003,4.585248e+001
2.086061e+003,4.718469e+001
2.087025e+003,5.014172e+001
2.087989e+003,5.203430e+001
2.088953e+003,5.289294e+001
2.089918e+003,4.994232e+001
2.090882e+003,4.084766e+001
2.091846e+003,3.805017e+001
2.092810e+003,4.575012e+001
2.093775e+003,5.119232e+001
2.094739e+003,4.789478e+001
2.095703e+003,4.426282e+001
2.096667e+003,4.774359e+001
2.097632e+003,5.228821e+001
2.098596e+003,4.913971e+001
2.099560e+003,4.167627e+001
2.100524e+003,4.005762e+001
2.101489e+003,4.375146e+001
2.102453e+003,4.400098e+001
2.103417e+003,3.990070e+001
2.104381e+003,3.642548e+001
2.105345e+003,3.223340e+001
2.106310e+003,3.179169e+001
2.107274e+003,4.028094e+001
2.108238e+003,4.938428e+001
2.109202e+003,5.260437e+001
2.110167e+003,5.194263e+001
2.111131e+003,4.944958e+001
2.112095e+003,4.489703e+001
2.113059e+003,4.043756e+001
2.114023e+003,3.948584e+001
2.114988e+003,4.157550e+001
2.115952e+003,4.191486e+001
2.116916e+003,4.253674e+001
2.117880e+003,5.015771e+001
2.118845e+003,5.270227e+001
2.119809e+003,4.047339e+001
2.120773e+003,2.903754e+001
2.121737e+003,3.048743e+001
2.122702e+003,3.839124e+001
2.123666e+003,4.446191e+001
2.124630e+003,4.674451e+001
2.125594e+003,4.447028e+001
2.126559e+003,3.780762e+001
2.127523e+003,3.244873e+001
2.128487e+003,3.186035e+001
2.129451e+003,3.394293e+001
2.130416e+003,3.782239e+001
2.131380e+003,4.096338e+001
2.132344e+003,4.130847e+001
2.133308e+003,4.062988e+001
2.134272e+003,4.070502e+001
2.135237e+003,4.013562e+001
2.136201e+003,3.739172e+001
2.137165e+003,3.332874e+001
2.138129e+003,2.949457e+001
2.139094e+003,2.683228e+001
2.140058e+003,2.660272e+001
2.141022e+003,2.871014e+001
2.141986e+003,3.068304e+001
2.142950e+003,3.204590e+001
2.143915e+003,3.310504e+001
2.144879e+003,3.299823e+001
2.145843e+003,3.207086e+001
2.146807e+003,3.261786e+001
2.147772e+003,3.485925e+001
2.148736e+003,3.615173e+001
2.149700e+003,3.505353e+001
2.150664e+003,3.233167e+001
2.151629e+003,2.888562e+001
2.152593e+003,2.617499e+001
2.153557e+003,2.615094e+001
2.154521e+003,2.785016e+001
2.155486e+003,2.963898e+001
2.156450e+003,2.975818e+001
2.157414e+003,2.514423e+001
2.158378e+003,1.952350e+001
2.159343e+003,1.965668e+001
2.160307e+003,2.494568e+001
2.161271e+003,3.340729e+001
2.162235e+003,4.192896e+001
2.163199e+003,4.116382e+001
2.164164e+003,2.816504e+001
2.165128e+003,1.655231e+001
2.166092e+003,1.851453e+001
2.167056e+003,2.613916e+001
2.168021e+003,2.771790e+001
2.168985e+003,2.500293e+001
2.169949e+003,2.394257e+001
2.170913e+003,2.398755e+001
2.171877e+003,2.181946e+001
2.172842e+003,1.887305e+001
2.173806e+003,1.888739e+001
2.174770e+003,2.163782e+001
2.175734e+003,2.393097e+001
2.176699e+003,2.425641e+001
2.177663e+003,2.458118e+001
2.178627e+003,2.726917e+001
2.179591e+003,3.039087e+001
2.180556e+003,2.966534e+001
2.181520e+003,2.592670e+001
2.182484e+003,2.242224e+001
2.183448e+003,2.020416e+001
2.184413e+003,2.049805e+001
2.185377e+003,2.255273e+001
2.186341e+003,2.384473e+001
2.187305e+003,2.358173e+001
2.188270e+003,2.233044e+001
2.189234e+003,2.120886e+001
2.190198e+003,2.267297e+001
2.191162e+003,2.757263e+001
2.192126e+003,3.066107e+001
2.193091e+003,2.551563e+001
2.194055e+003,1.682629e+001
2.195019e+003,1.438647e+001
2.195983e+003,1.672137e+001
2.196948e+003,1.666541e+001
2.197912e+003,1.459723e+001
2.198876e+003,1.593365e+001
2.199840e+003,2.017566e+001
2.200804e+003,2.100842e+001
2.201769e+003,1.640314e+001
2.202733e+003,1.242584e+001
2.203697e+003,1.434552e+001
2.204661e+003,1.744861e+001
2.205626e+003,1.412952e+001
2.206590e+003,8.576172e+000
2.207554e+003,8.298706e+000
2.208518e+003,1.066846e+001
2.209483e+003,1.265448e+001
2.210447e+003,1.462561e+001
2.211411e+003,1.577032e+001
2.212375e+003,1.628326e+001
2.213340e+003,1.825720e+001
2.214304e+003,2.217834e+001
2.215268e+003,2.520337e+001
2.216232e+003,2.471368e+001
2.217197e+003,2.146143e+001
2.218161e+003,1.723169e+001
2.219125e+003,1.359845e+001
2.220089e+003,1.415125e+001
2.221053e+003,1.742236e+001
2.222018e+003,1.540741e+001
2.222982e+003,9.129211e+000
2.223946e+003,8.293762e+000
2.224910e+003,1.338403e+001
2.225875e+003,1.615503e+001
2.226839e+003,1.433429e+001
2.227803e+003,1.240247e+001
2.228767e+003,1.230975e+001
2.229731e+003,1.210309e+001
2.230696e+003,1.073920e+001
2.231660e+003,8.629272e+000
2.232624e+003,6.393982e+000
2.233588e+003,5.982178e+000
2.234553e+003,9.188110e+000
2.235517e+003,1.400854e+001
2.236481e+003,1.744989e+001
2.237445e+003,1.800385e+001
2.238410e+003,1.443689e+001
2.239374e+003,9.121704e+000
2.240338e+003,8.087830e+000
2.241302e+003,1.263354e+001
2.242267e+003,1.632379e+001
2.243231e+003,1.462103e+001
2.244195e+003,1.335016e+001
2.245159e+003,2.120020e+001
2.246124e+003,2.831097e+001
2.247088e+003,1.984686e+001
2.248052e+003,6.076599e+000
2.249016e+003,3.008850e+000
2.249980e+003,6.796143e+000
2.250945e+003,7.907410e+000
2.251909e+003,6.556091e+000
2.252873e+003,7.083435e+000
2.253837e+003,9.383057e+000
2.254802e+003,1.000446e+001
2.255766e+003,8.090210e+000
2.256730e+003,6.487549e+000
2.257694e+003,6.202820e+000
2.258658e+003,6.455139e+000
2.259623e+003,6.929260e+000
2.260587e+003,7.635254e+000
2.261551e+003,8.959717e+000
2.262515e+003,1.072809e+001
2.263480e+003,1.402209e+001
2.264444e+003,1.763202e+001
2.265408e+003,1.762958e+001
2.266372e+003,1.353485e+001
2.267337e+003,9.120605e+000
2.268301e+003,5.902161e+000
2.269265e+003,3.056824e+000
2.270229e+003,1.200256e+000
2.271194e+003,5.311218e+000
2.272158e+003,1.841296e+001
2.273122e+003,2.770660e+001
2.274086e+003,2.560651e+001
2.275051e+003,2.025153e+001
2.276015e+003,1.897449e+001
2.276979e+003,2.037738e+001
2.277943e+003,2.151025e+001
2.278907e+003,2.097620e+001
2.279872e+003,1.589685e+001
2.280836e+003,5.725525e+000
2.281800e+003,0.000000e+000
2.282764e+003,3.540894e+000
2.283729e+003,7.566650e+000
2.284693e+003,1.321301e+001
2.285657e+003,1.787604e+001
2.286621e+003,1.592609e+001
2.287585e+003,1.251978e+001
2.288550e+003,1.294342e+001
2.289514e+003,1.448981e+001
2.290478e+003,1.349750e+001
2.291442e+003,1.237744e+001
2.292407e+003,1.536462e+001
2.293371e+003,2.036060e+001
2.294335e+003,1.961615e+001
2.295299e+003,1.111487e+001
2.296264e+003,7.394531e+000
2.297228e+003,1.280579e+001
2.298192e+003,1.478375e+001
2.299156e+003,1.187744e+001
2.300121e+003,1.034247e+001
2.301085e+003,9.598572e+000
2.302049e+003,9.981873e+000
2.303013e+003,1.363867e+001
2.303978e+003,1.781427e+001
2.304942e+003,1.848822e+001
2.305906e+003,1.713165e+001
2.306870e+003,1.836810e+001
2.307834e+003,2.171350e+001
2.308799e+003,2.249841e+001
2.309763e+003,2.151593e+001
2.310727e+003,2.022278e+001
2.311691e+003,1.745740e+001
2.312656e+003,1.545514e+001
2.313620e+003,1.471393e+001
2.314584e+003,1.522388e+001
2.315548e+003,1.714508e+001
2.316512e+003,1.885437e+001
2.317477e+003,2.016327e+001
2.318441e+003,2.197150e+001
2.319405e+003,2.323407e+001
2.320369e+003,2.461554e+001
2.321334e+003,2.915332e+001
2.322298e+003,3.378223e+001
2.323262e+003,3.415381e+001
2.324226e+003,3.334497e+001
2.325191e+003,3.356744e+001
2.326155e+003,3.442590e+001
2.327119e+003,3.722223e+001
2.328083e+003,4.106915e+001
2.329048e+003,4.333942e+001
2.330012e+003,4.414587e+001
2.330976e+003,4.330127e+001
2.331940e+003,3.798053e+001
2.332905e+003,3.282495e+001
2.333869e+003,3.693811e+001
2.334833e+003,4.335162e+001
2.335797e+003,4.514850e+001
2.336761e+003,4.496368e+001
2.337726e+003,4.157111e+001
2.338690e+003,3.723303e+001
2.339654e+003,3.832538e+001
2.340618e+003,4.341364e+001
2.341583e+003,4.744012e+001
2.342547e+003,4.983429e+001
2.343511e+003,5.141956e+001
2.344475e+003,5.146259e+001
2.345439e+003,5.149030e+001
2.346404e+003,5.204272e+001
2.347368e+003,5.182629e+001
2.348332e+003,5.085089e+001
2.349296e+003,5.230743e+001
2.350261e+003,5.979279e+001
2.351225e+003,6.790118e+001
2.352189e+003,7.254822e+001
2.353153e+003,7.329340e+001
2.354118e+003,6.673419e+001
2.355082e+003,5.788080e+001
2.356046e+003,6.039734e+001
2.357010e+003,7.422418e+001
2.357975e+003,8.207263e+001
2.358939e+003,8.163184e+001
2.359903e+003,8.304944e+001
2.360867e+003,8.417877e+001
2.361832e+003,8.456421e+001
2.362796e+003,8.692407e+001
2.363760e+003,9.066870e+001
2.364724e+003,9.706427e+001
2.365688e+003,1.016358e+002
2.366653e+003,9.842792e+001
2.367617e+003,9.346924e+001
2.368581e+003,9.577069e+001
2.369545e+003,1.016922e+002
2.370510e+003,1.029229e+002
2.371474e+003,1.017639e+002
2.372438e+003,1.050244e+002
2.373402e+003,1.109268e+002
2.374366e+003,1.137331e+002
2.375331e+003,1.139584e+002
2.376295e+003,1.141139e+002
2.377259e+003,1.149364e+002
2.378223e+003,1.171620e+002
2.379188e+003,1.205713e+002
2.380152e+003,1.241534e+002
2.381116e+003,1.276176e+002
2.382080e+003,1.301163e+002
2.383045e+003,1.304089e+002
2.384009e+003,1.291774e+002
2.384973e+003,1.275009e+002
2.385937e+003,1.253095e+002
2.386902e+003,1.226811e+002
2.387866e+003,1.215598e+002
2.388830e+003,1.207427e+002
2.389794e+003,1.203852e+002
2.390759e+003,1.228212e+002
2.391723e+003,1.267192e+002
2.392687e+003,1.302564e+002
2.393651e+003,1.343512e+002
2.394615e+003,1.379194e+002
2.395580e+003,1.395961e+002
2.396544e+003,1.395904e+002
2.397508e+003,1.359197e+002
2.398472e+003,1.331497e+002
2.399437e+003,1.334620e+002
2.400401e+003,1.352020e+002
2.401365e+003,1.383063e+002
2.402329e+003,1.397534e+002
2.403293e+003,1.368445e+002
2.404258e+003,1.326479e+002
2.405222e+003,1.309663e+002
2.406186e+003,1.326470e+002
2.407150e+003,1.383815e+002
2.408115e+003,1.463553e+002
2.409079e+003,1.475156e+002
2.410043e+003,1.420687e+002
2.411007e+003,1.376680e+002
2.411972e+003,1.349937e+002
2.412936e+003,1.354593e+002
2.413900e+003,1.381439e+002
2.414864e+003,1.421137e+002
2.415829e+003,1.476946e+002
2.416793e+003,1.514447e+002
2.417757e+003,1.510889e+002
2.418721e+003,1.511188e+002
2.419686e+003,1.562863e+002
2.420650e+003,1.609550e+002
2.421614e+003,1.561350e+002
2.422578e+003,1.503019e+002
2.423542e+003,1.532964e+002
2.424507e+003,1.581693e+002
2.425471e+003,1.586761e+002
2.426435e+003,1.578057e+002
2.427399e+003,1.580594e+002
2.428364e+003,1.576694e+002
2.429328e+003,1.556619e+002
2.430292e+003,1.534730e+002
2.431256e+003,1.513636e+002
2.432220e+003,1.486772e+002
2.433185e+003,1.479765e+002
2.434149e+003,1.486508e+002
2.435113e+003,1.498554e+002
2.436077e+003,1.537761e+002
2.437042e+003,1.556157e+002
2.438006e+003,1.540566e+002
2.438970e+003,1.509792e+002
2.439934e+003,1.468499e+002
2.440899e+003,1.422842e+002
2.441863e+003,1.377482e+002
2.442827e+003,1.361442e+002
2.443791e+003,1.409227e+002
2.444756e+003,1.478650e+002
2.445720e+003,1.476811e+002
2.446684e+003,1.417306e+002
2.447648e+003,1.346322e+002
2.448613e+003,1.277472e+002
2.449577e+003,1.265207e+002
2.450541e+003,1.295549e+002
2.451505e+003,1.319117e+002
2.452469e+003,1.322298e+002
2.453434e+003,1.268363e+002
2.454398e+003,1.150929e+002
2.455362e+003,1.068174e+002
2.456326e+003,1.098006e+002
2.457291e+003,1.189977e+002
2.458255e+003,1.336617e+002
2.459219e+003,1.435765e+002
2.460183e+003,1.382732e+002
2.461147e+003,1.293606e+002
2.462112e+003,1.262114e+002
2.463076e+003,1.253279e+002
2.464040e+003,1.208522e+002
2.465004e+003,1.146448e+002
2.465969e+003,1.123180e+002
2.466933e+003,1.134363e+002
2.467897e+003,1.130153e+002
2.468861e+003,1.101013e+002
2.469826e+003,1.100123e+002
2.470790e+003,1.139248e+002
2.471754e+003,1.150334e+002
2.472718e+003,1.141793e+002
2.473683e+003,1.137889e+002
2.474647e+003,1.120355e+002
2.475611e+003,1.101183e+002
2.476575e+003,1.097621e+002
2.477540e+003,1.090991e+002
2.478504e+003,1.065828e+002
2.479468e+003,1.030366e+002
2.480432e+003,9.936414e+001
2.481396e+003,9.641779e+001
2.482361e+003,9.569214e+001
2.483325e+003,9.728992e+001
2.484289e+003,1.004758e+002
2.485253e+003,1.020710e+002
2.486218e+003,9.945154e+001
2.487182e+003,9.479309e+001
2.488146e+003,9.086169e+001
2.489110e+003,8.822864e+001
2.490074e+003,8.602777e+001
2.491039e+003,8.563501e+001
2.492003e+003,8.978430e+001
2.492967e+003,9.598584e+001
2.493931e+003,9.689349e+001
2.494896e+003,9.294519e+001
2.495860e+003,9.132843e+001
2.496824e+003,9.318219e+001
2.497788e+003,9.494446e+001
2.498753e+003,9.529724e+001
2.499717e+003,9.445001e+001
2.500681e+003,9.305109e+001
2.501645e+003,9.137750e+001
2.502610e+003,8.893488e+001
2.503574e+003,8.583313e+001
2.504538e+003,8.309961e+001
2.505502e+003,8.252325e+001
2.506467e+003,8.490674e+001
2.507431e+003,8.723962e+001
2.508395e+003,8.773010e+001
2.509359e+003,8.711505e+001
2.510323e+003,8.410822e+001
2.511288e+003,8.125690e+001
2.512252e+003,8.325671e+001
2.513216e+003,8.687274e+001
2.514180e+003,8.628693e+001
2.515145e+003,8.275360e+001
2.516109e+003,8.047021e+001
2.517073e+003,7.987604e+001
2.518037e+003,8.055261e+001
2.519001e+003,8.230835e+001
2.519966e+003,8.580847e+001
2.520930e+003,9.235333e+001
2.521894e+003,9.727051e+001
2.522858e+003,1.007690e+002
2.523823e+003,9.965479e+001
2.524787e+003,9.231152e+001
2.525751e+003,8.666559e+001
2.526715e+003,8.645062e+001
2.527680e+003,8.797754e+001
2.528644e+003,8.885541e+001
2.529608e+003,8.913824e+001
2.530572e+003,8.668250e+001
2.531537e+003,8.351270e+001
2.532501e+003,8.585431e+001
2.533465e+003,8.927393e+001
2.534429e+003,8.790521e+001
2.535394e+003,8.524353e+001
2.536358e+003,8.370398e+001
2.537322e+003,8.246375e+001
2.538286e+003,8.106067e+001
2.539250e+003,8.014374e+001
2.540215e+003,8.070905e+001
2.541179e+003,8.246112e+001
2.542143e+003,8.487701e+001
2.543107e+003,9.043921e+001
2.544072e+003,9.343793e+001
2.545036e+003,9.052185e+001
2.546000e+003,9.004700e+001
2.546964e+003,9.275195e+001
2.547928e+003,9.408636e+001
2.548893e+003,9.305170e+001
2.549857e+003,9.173895e+001
2.550821e+003,9.133197e+001
2.551785e+003,8.900824e+001
2.552750e+003,8.298657e+001
2.553714e+003,7.675647e+001
2.554678e+003,7.354224e+001
2.555642e+003,7.344348e+001
2.556607e+003,7.667389e+001
2.557571e+003,7.916919e+001
2.558535e+003,7.833691e+001
2.559499e+003,7.561304e+001
2.560464e+003,7.304639e+001
2.561428e+003,7.207623e+001
2.562392e+003,7.180585e+001
2.563356e+003,7.158655e+001
2.564321e+003,7.261200e+001
2.565285e+003,7.469427e+001
2.566249e+003,7.474805e+001
2.567213e+003,7.169299e+001
2.568177e+003,7.051929e+001
2.569142e+003,7.167273e+001
2.570106e+003,7.128571e+001
2.571070e+003,7.028784e+001
2.572034e+003,6.927368e+001
2.572999e+003,6.862061e+001
2.573963e+003,6.776324e+001
2.574927e+003,6.589783e+001
2.575891e+003,6.540131e+001
2.576855e+003,6.680109e+001
2.577820e+003,6.801544e+001
2.578784e+003,7.107678e+001
2.579748e+003,7.225067e+001
2.580712e+003,6.706305e+001
2.581677e+003,6.231610e+001
2.582641e+003,5.715637e+001
2.583605e+003,5.368408e+001
2.584569e+003,5.625122e+001
2.585534e+003,5.931268e+001
2.586498e+003,6.015381e+001
2.587462e+003,5.948633e+001
2.588426e+003,5.706946e+001
2.589391e+003,5.379950e+001
2.590355e+003,5.247198e+001
2.591319e+003,5.244281e+001
2.592283e+003,5.047742e+001
2.593248e+003,4.774591e+001
2.594212e+003,4.801727e+001
2.595176e+003,4.979132e+001
2.596140e+003,4.870844e+001
2.597104e+003,4.656219e+001
2.598069e+003,4.953796e+001
2.599033e+003,5.512439e+001
2.599997e+003,5.434802e+001
2.600961e+003,4.734149e+001
2.601926e+003,4.265527e+001
2.602890e+003,4.100745e+001
2.603854e+003,4.381909e+001
2.604818e+003,5.484216e+001
2.605782e+003,5.792731e+001
2.606747e+003,5.116852e+001
2.607711e+003,4.624414e+001
2.608675e+003,4.528455e+001
2.609639e+003,4.599957e+001
2.610604e+003,4.771216e+001
2.611568e+003,4.949268e+001
2.612532e+003,5.045868e+001
2.613496e+003,4.964648e+001
2.614461e+003,4.492798e+001
2.615425e+003,4.097498e+001
2.616389e+003,4.581561e+001
2.617353e+003,5.056946e+001
2.618318e+003,4.842114e+001
2.619282e+003,4.395819e+001
2.620246e+003,4.059973e+001
2.621210e+003,3.986169e+001
2.622175e+003,3.945520e+001
2.623139e+003,3.967645e+001
2.624103e+003,4.293408e+001
2.625067e+003,4.595581e+001
2.626031e+003,4.468042e+001
2.626996e+003,4.307983e+001
2.627960e+003,4.608868e+001
2.628924e+003,5.055554e+001
2.629888e+003,4.916699e+001
2.630853e+003,4.321130e+001
2.631817e+003,4.014264e+001
2.632781e+003,4.214600e+001
2.633745e+003,4.301318e+001
2.634709e+003,4.004095e+001
2.635674e+003,3.816382e+001
2.636638e+003,3.895996e+001
2.637602e+003,3.993982e+001
2.638566e+003,4.423724e+001
2.639531e+003,4.487067e+001
2.640495e+003,3.030322e+001
2.641459e+003,2.426196e+001
2.642423e+003,3.193372e+001
2.643388e+003,3.856226e+001
2.644352e+003,4.053723e+001
2.645316e+003,4.150397e+001
2.646280e+003,4.260791e+001
2.647245e+003,4.138934e+001
2.648209e+003,3.844672e+001
2.649173e+003,3.616724e+001
2.650137e+003,3.349762e+001
2.651102e+003,3.224646e+001
2.652066e+003,3.370581e+001
2.653030e+003,3.336365e+001
2.653994e+003,3.023242e+001
2.654958e+003,2.999701e+001
2.655923e+003,4.031424e+001
2.656887e+003,5.017007e+001
2.657851e+003,4.635550e+001
2.658815e+003,3.789548e+001
2.659780e+003,3.557339e+001
2.660744e+003,3.719693e+001
2.661708e+003,3.858020e+001
2.662672e+003,3.936102e+001
2.663636e+003,3.565817e+001
2.664601e+003,2.962067e+001
2.665565e+003,2.897842e+001
2.666529e+003,3.133258e+001
2.667493e+003,3.171017e+001
2.668458e+003,3.091693e+001
2.669422e+003,2.980505e+001
2.670386e+003,2.766544e+001
2.671350e+003,2.594205e+001
2.672315e+003,2.721124e+001
2.673279e+003,3.218216e+001
2.674243e+003,3.935938e+001
2.675207e+003,3.994925e+001
2.676172e+003,3.258694e+001
2.677136e+003,2.909729e+001
2.678100e+003,3.088202e+001
2.679064e+003,3.148788e+001
2.680029e+003,2.852414e+001
2.680993e+003,2.508487e+001
2.681957e+003,2.344318e+001
2.682921e+003,2.307379e+001
2.683885e+003,2.239240e+001
2.684850e+003,2.182309e+001
2.685814e+003,2.473572e+001
2.686778e+003,2.833105e+001
2.687742e+003,2.964508e+001
2.688707e+003,3.027179e+001
2.689671e+003,2.547839e+001
2.690635e+003,2.290131e+001
2.691599e+003,2.806009e+001
2.692563e+003,3.157776e+001
2.693528e+003,2.929620e+001
2.694492e+003,2.525412e+001
2.695456e+003,2.185370e+001
2.696420e+003,2.086807e+001
2.697385e+003,2.493839e+001
2.698349e+003,2.955951e+001
2.699313e+003,3.089868e+001
2.700277e+003,2.992758e+001
2.701242e+003,2.185568e+001
2.702206e+003,1.421640e+001
2.703170e+003,1.607703e+001
2.704134e+003,2.095575e+001
2.705099e+003,2.599661e+001
2.706063e+003,2.854755e+001
2.707027e+003,2.312482e+001
2.707991e+003,1.514795e+001
2.708956e+003,1.491278e+001
2.709920e+003,1.922186e+001
2.710884e+003,2.430927e+001
2.711848e+003,2.964160e+001
2.712813e+003,2.952664e+001
2.713777e+003,2.764932e+001
2.714741e+003,2.757837e+001
2.715705e+003,2.596719e+001
2.716669e+003,2.300958e+001
2.717634e+003,2.033450e+001
2.718598e+003,1.655786e+001
2.719562e+003,1.452328e+001
2.720526e+003,1.978030e+001
2.721490e+003,2.745038e+001
2.722455e+003,2.761835e+001
2.723419e+003,2.314737e+001
2.724383e+003,1.892010e+001
2.725347e+003,1.536835e+001
2.726312e+003,1.228983e+001
2.727276e+003,8.581665e+000
2.728240e+003,8.909912e+000
2.729204e+003,1.509415e+001
2.730169e+003,2.004965e+001
2.731133e+003,1.901859e+001
2.732097e+003,1.653934e+001
2.733061e+003,1.474756e+001
2.734026e+003,1.151471e+001
2.734990e+003,1.194958e+001
2.735954e+003,1.284918e+001
2.736918e+003,9.965881e+000
2.737883e+003,1.171881e+001
2.738847e+003,1.835071e+001
2.739811e+003,2.076678e+001
2.740775e+003,1.717218e+001
2.741740e+003,1.157925e+001
2.742704e+003,7.574554e+000
2.743668e+003,6.754150e+000
2.744632e+003,7.844482e+000
2.745596e+003,1.052853e+001
2.746561e+003,1.480322e+001
2.747525e+003,1.404126e+001
2.748489e+003,8.442719e+000
2.749453e+003,4.158356e+000
2.750417e+003,3.413971e+000
2.751382e+003,4.848572e+000
2.752346e+003,6.331512e+000
2.753310e+003,7.958313e+000
2.754274e+003,9.856354e+000
2.755239e+003,1.245343e+001
2.756203e+003,1.778656e+001
2.757167e+003,2.163394e+001
2.758131e+003,1.791098e+001
2.759096e+003,1.330771e+001
2.760060e+003,1.361923e+001
2.761024e+003,1.393961e+001
2.761988e+003,9.501434e+000
2.762953e+003,6.330902e+000
2.763917e+003,8.125671e+000
2.764881e+003,1.117859e+001
2.765845e+003,1.187845e+001
2.766810e+003,1.226157e+001
2.767774e+003,1.732443e+001
2.768738e+003,2.276108e+001
2.769702e+003,1.779227e+001
2.770667e+003,1.159857e+001
2.771631e+003,1.206537e+001
2.772595e+003,1.326431e+001
2.773559e+003,1.594916e+001
2.774523e+003,1.822311e+001
2.775488e+003,1.768414e+001
2.776452e+003,1.677872e+001
2.777416e+003,1.159674e+001
2.778380e+003,1.350281e+000
2.779344e+003,2.825592e+000
2.780309e+003,1.489780e+001
2.781273e+003,1.561981e+001
2.782237e+003,1.373715e+001
2.783201e+003,1.826807e+001
2.784166e+003,2.005490e+001
2.785130e+003,1.781241e+001
2.786094e+003,1.458661e+001
2.787058e+003,1.149896e+001
2.788023e+003,1.041800e+001
2.788987e+003,1.071930e+001
2.789951e+003,1.099997e+001
2.790915e+003,1.329791e+001
2.791880e+003,1.720947e+001
2.792844e+003,1.603165e+001
2.793808e+003,1.258023e+001
2.794772e+003,1.198083e+001
2.795737e+003,1.118158e+001
2.796701e+003,1.146405e+001
2.797665e+003,1.333289e+001
2.798629e+003,1.420862e+001
2.799594e+003,1.529721e+001
2.800558e+003,1.741641e+001
2.801522e+003,1.961591e+001
2.802486e+003,2.309064e+001
2.803450e+003,2.541055e+001
2.804415e+003,2.199567e+001
2.805379e+003,1.485150e+001
2.806343e+003,1.448502e+001
2.807307e+003,2.247522e+001
2.808271e+003,2.276379e+001
2.809236e+003,1.386124e+001
2.810200e+003,1.544553e+001
2.811164e+003,2.756082e+001
2.812128e+003,2.647501e+001
2.813093e+003,1.077295e+001
2.814057e+003,1.143900e+001
2.815021e+003,2.540710e+001
2.815985e+003,2.428925e+001
2.816950e+003,1.456866e+001
2.817914e+003,1.214667e+001
2.818878e+003,1.486536e+001
2.819842e+003,2.125909e+001
2.820807e+003,2.977814e+001
2.821771e+003,3.154080e+001
2.822735e+003,2.516489e+001
2.823699e+003,2.206970e+001
2.824664e+003,2.703195e+001
2.825628e+003,2.592340e+001
2.826592e+003,1.650168e+001
2.827556e+003,1.590271e+001
2.828521e+003,2.159122e+001
2.829485e+003,2.079666e+001
2.830449e+003,1.612390e+001
2.831413e+003,1.780743e+001
2.832377e+003,2.359811e+001
2.833342e+003,2.330316e+001
2.834306e+003,1.760681e+001
2.835270e+003,1.678311e+001
2.836234e+003,2.294598e+001
2.837198e+003,2.705566e+001
2.838163e+003,2.901740e+001
2.839127e+003,2.813425e+001
2.840091e+003,2.412119e+001
2.841055e+003,1.942313e+001
2.842020e+003,1.392426e+001
2.842984e+003,1.321185e+001
2.843948e+003,1.750311e+001
2.844912e+003,2.163263e+001
2.845877e+003,2.397266e+001
2.846841e+003,2.301556e+001
2.847805e+003,1.781415e+001
2.848769e+003,1.681659e+001
2.849734e+003,2.290625e+001
2.850698e+003,2.418289e+001
2.851662e+003,1.992276e+001
2.852626e+003,2.088818e+001
2.853591e+003,2.779877e+001
2.854555e+003,2.833820e+001
2.855519e+003,2.188483e+001
2.856483e+003,1.986377e+001
2.857448e+003,2.429691e+001
2.858412e+003,2.912454e+001
2.859376e+003,3.449768e+001
2.860340e+003,3.491644e+001
2.861304e+003,2.581094e+001
2.862269e+003,2.230560e+001
2.863233e+003,2.331735e+001
2.864197e+003,2.582257e+001
2.865161e+003,3.087390e+001
2.866125e+003,3.073953e+001
2.867090e+003,2.490616e+001
2.868054e+003,2.492737e+001
2.869018e+003,3.217606e+001
2.869982e+003,3.421808e+001
2.870947e+003,2.933743e+001
2.871911e+003,2.984360e+001
2.872875e+003,3.511267e+001
2.873839e+003,3.601318e+001
2.874804e+003,3.304135e+001
2.875768e+003,3.187167e+001
2.876732e+003,3.303922e+001
2.877696e+003,3.379172e+001
2.878661e+003,3.368564e+001
2.879625e+003,3.374603e+001
2.880589e+003,3.427185e+001
2.881553e+003,3.627591e+001
2.882518e+003,4.099683e+001
2.883482e+003,4.194553e+001
2.884446e+003,3.708182e+001
2.885410e+003,3.852493e+001
2.886375e+003,4.590906e+001
2.887339e+003,5.178168e+001
2.888303e+003,5.543442e+001
2.889267e+003,5.716159e+001
2.890231e+003,5.770987e+001
2.891196e+003,5.952133e+001
2.892160e+003,6.265936e+001
2.893124e+003,6.287338e+001
2.894088e+003,5.894699e+001
2.895052e+003,5.955219e+001
2.896017e+003,6.488391e+001
2.896981e+003,7.340250e+001
2.897945e+003,8.376233e+001
2.898909e+003,8.780051e+001
2.899874e+003,8.618188e+001
2.900838e+003,8.185681e+001
2.901802e+003,7.749557e+001
2.902766e+003,7.934879e+001
2.903731e+003,8.715192e+001
2.904695e+003,8.968170e+001
2.905659e+003,8.646143e+001
2.906623e+003,8.956018e+001
2.907588e+003,9.831793e+001
2.908552e+003,1.000271e+002
2.909516e+003,9.732394e+001
2.910480e+003,1.021823e+002
2.911445e+003,1.111987e+002
2.912409e+003,1.126514e+002
2.913373e+003,1.084471e+002
2.914337e+003,1.088366e+002
2.915302e+003,1.137879e+002
2.916266e+003,1.171150e+002
2.917230e+003,1.190515e+002
2.918194e+003,1.228839e+002
2.919158e+003,1.279364e+002
2.920123e+003,1.310446e+002
2.921087e+003,1.330512e+002
2.922051e+003,1.359062e+002
2.923015e+003,1.393645e+002
2.923979e+003,1.427278e+002
2.924944e+003,1.458686e+002
2.925908e+003,1.488390e+002
2.926872e+003,1.514943e+002
2.927836e+003,1.529524e+002
2.928801e+003,1.540555e+002
2.929765e+003,1.592711e+002
2.930729e+003,1.663142e+002
2.931693e+003,1.708813e+002
2.932658e+003,1.735118e+002
2.933622e+003,1.748682e+002
2.934586e+003,1.754912e+002
2.935550e+003,1.753114e+002
2.936515e+003,1.754347e+002
2.937479e+003,1.774059e+002
2.938443e+003,1.805844e+002
2.939407e+003,1.833615e+002
2.940372e+003,1.865053e+002
2.941336e+003,1.930915e+002
2.942300e+003,1.994618e+002
2.943264e+003,1.999819e+002
2.944229e+003,1.990806e+002
2.945193e+003,1.999760e+002
2.946157e+003,2.038256e+002
2.947121e+003,2.131078e+002
2.948085e+003,2.201773e+002
2.949050e+003,2.154986e+002
2.950014e+003,2.069387e+002
2.950978e+003,2.053987e+002
2.951942e+003,2.081771e+002
2.952906e+003,2.151157e+002
2.953871e+003,2.213192e+002
2.954835e+003,2.209531e+002
2.955799e+003,2.221550e+002
2.956763e+003,2.303356e+002
2.957728e+003,2.372569e+002
2.958692e+003,2.376088e+002
2.959656e+003,2.366734e+002
2.960620e+003,2.391601e+002
2.961585e+003,2.421158e+002
2.962549e+003,2.417028e+002
2.963513e+003,2.424008e+002
2.964477e+003,2.491776e+002
2.965442e+003,2.529550e+002
2.966406e+003,2.496440e+002
2.967370e+003,2.485257e+002
2.968334e+003,2.527343e+002
2.969299e+003,2.587685e+002
2.970263e+003,2.646436e+002
2.971227e+003,2.678040e+002
2.972191e+003,2.663649e+002
2.973156e+003,2.642591e+002
2.974120e+003,2.618406e+002
2.975084e+003,2.621349e+002
2.976048e+003,2.661397e+002
2.977012e+003,2.695677e+002
2.977977e+003,2.717921e+002
2.978941e+003,2.760008e+002
2.979905e+003,2.819944e+002
2.980869e+003,2.827210e+002
2.981833e+003,2.767568e+002
2.982798e+003,2.740130e+002
2.983762e+003,2.785191e+002
2.984726e+003,2.806907e+002
2.985690e+003,2.785786e+002
2.986655e+003,2.820925e+002
2.987619e+003,2.908190e+002
2.988583e+003,2.954357e+002
2.989547e+003,2.952495e+002
2.990512e+003,2.902278e+002
2.991476e+003,2.836124e+002
2.992440e+003,2.853197e+002
2.993404e+003,2.953742e+002
2.994369e+003,3.001333e+002
2.995333e+003,2.995505e+002
2.996297e+003,3.010663e+002
2.997261e+003,3.040569e+002
2.998226e+003,3.044467e+002
2.999190e+003,3.033178e+002
3.000154e+003,3.031392e+002
3.001118e+003,3.037924e+002
3.002083e+003,3.036809e+002
3.003047e+003,3.046333e+002
3.004011e+003,3.109950e+002
3.004975e+003,3.193359e+002
3.005939e+003,3.211363e+002
3.006904e+003,3.192147e+002
3.007868e+003,3.214484e+002
3.008832e+003,3.248277e+002
3.009796e+003,3.244827e+002
3.010760e+003,3.234306e+002
3.011725e+003,3.252103e+002
3.012689e+003,3.275560e+002
3.013653e+003,3.286083e+002
3.014617e+003,3.287242e+002
3.015582e+003,3.278645e+002
3.016546e+003,3.293081e+002
3.017510e+003,3.394317e+002
3.018474e+003,3.494917e+002
3.019439e+003,3.507337e+002
3.020403e+003,3.499955e+002
3.021367e+003,3.501310e+002
3.022331e+003,3.503690e+002
3.023296e+003,3.502288e+002
3.024260e+003,3.518904e+002
3.025224e+003,3.562991e+002
3.026188e+003,3.608359e+002
3.027153e+003,3.639693e+002
3.028117e+003,3.653785e+002
3.029081e+003,3.616638e+002
3.030045e+003,3.632788e+002
3.031010e+003,3.751615e+002
3.031974e+003,3.806344e+002
3.032938e+003,3.777522e+002
3.033902e+003,3.780678e+002
3.034866e+003,3.832386e+002
3.035831e+003,3.871038e+002
3.036795e+003,3.881771e+002
3.037759e+003,3.895872e+002
3.038723e+003,3.922274e+002
3.039688e+003,3.944115e+002
3.040652e+003,3.957635e+002
3.041616e+003,3.996559e+002
3.042580e+003,4.053362e+002
3.043544e+003,4.083944e+002
3.044509e+003,4.090846e+002
3.045473e+003,4.088128e+002
3.046437e+003,4.079007e+002
3.047401e+003,4.049054e+002
3.048366e+003,4.022366e+002
3.049330e+003,4.067497e+002
3.050294e+003,4.161369e+002
3.051258e+003,4.229978e+002
3.052223e+003,4.268989e+002
3.053187e+003,4.247561e+002
3.054151e+003,4.212616e+002
3.055115e+003,4.213495e+002
3.056080e+003,4.244743e+002
3.057044e+003,4.318917e+002
3.058008e+003,4.371089e+002
3.058972e+003,4.338221e+002
3.059937e+003,4.295733e+002
3.060901e+003,4.336764e+002
3.061865e+003,4.407423e+002
3.062829e+003,4.469971e+002
3.063793e+003,4.508760e+002
3.064758e+003,4.502861e+002
3.065722e+003,4.485072e+002
3.066686e+003,4.456540e+002
3.067650e+003,4.470737e+002
3.068615e+003,4.544967e+002
3.069579e+003,4.600821e+002
3.070543e+003,4.599163e+002
3.071507e+003,4.598329e+002
3.072471e+003,4.631151e+002
3.073436e+003,4.654367e+002
3.074400e+003,4.659980e+002
3.075364e+003,4.662950e+002
3.076328e+003,4.664977e+002
3.077293e+003,4.684158e+002
3.078257e+003,4.716755e+002
3.079221e+003,4.739576e+002
3.080185e+003,4.748613e+002
3.081150e+003,4.749027e+002
3.082114e+003,4.742648e+002
3.083078e+003,4.738301e+002
3.084042e+003,4.736871e+002
3.085007e+003,4.750957e+002
3.085971e+003,4.775385e+002
3.086935e+003,4.800188e+002
3.087899e+003,4.819874e+002
3.088864e+003,4.818249e+002
3.089828e+003,4.816237e+002
3.090792e+003,4.849058e+002
3.091756e+003,4.887816e+002
3.092720e+003,4.894685e+002
3.093685e+003,4.882438e+002
3.094649e+003,4.859435e+002
3.095613e+003,4.848569e+002
3.096577e+003,4.895582e+002
3.097542e+003,4.937241e+002
3.098506e+003,4.920960e+002
3.099470e+003,4.907688e+002
3.100434e+003,4.918780e+002
3.101398e+003,4.933452e+002
3.102363e+003,4.940676e+002
3.103327e+003,4.940059e+002
3.104291e+003,4.926852e+002
3.105255e+003,4.940508e+002
3.106220e+003,5.036617e+002
3.107184e+003,5.081487e+002
3.108148e+003,5.061591e+002
3.109112e+003,5.035431e+002
3.110077e+003,5.015227e+002
3.111041e+003,5.025183e+002
3.112005e+003,5.064267e+002
3.112969e+003,5.122385e+002
3.113934e+003,5.187354e+002
3.114898e+003,5.201326e+002
3.115862e+003,5.169310e+002
3.116826e+003,5.153206e+002
3.117791e+003,5.156971e+002
3.118755e+003,5.216252e+002
3.119719e+003,5.294923e+002
3.120683e+003,5.331780e+002
3.121647e+003,5.341031e+002
3.122612e+003,5.332711e+002
3.123576e+003,5.335345e+002
3.124540e+003,5.380753e+002
3.125504e+003,5.432455e+002
3.126469e+003,5.435393e+002
3.127433e+003,5.422865e+002
3.128397e+003,5.430045e+002
3.129361e+003,5.443733e+002
3.130325e+003,5.455193e+002
3.131290e+003,5.475161e+002
3.132254e+003,5.509332e+002
3.133218e+003,5.528400e+002
3.134182e+003,5.523538e+002
3.135147e+003,5.537389e+002
3.136111e+003,5.590438e+002
3.137075e+003,5.638666e+002
3.138039e+003,5.672810e+002
3.139004e+003,5.665575e+002
3.139968e+003,5.609109e+002
3.140932e+003,5.608058e+002
3.141896e+003,5.655618e+002
3.142861e+003,5.691088e+002
3.143825e+003,5.705387e+002
3.144789e+003,5.688560e+002
3.145753e+003,5.663777e+002
3.146718e+003,5.707036e+002
3.147682e+003,5.789921e+002
3.148646e+003,5.807921e+002
3.149610e+003,5.784287e+002
3.150574e+003,5.763816e+002
3.151539e+003,5.763644e+002
3.152503e+003,5.832318e+002
3.153467e+003,5.895941e+002
3.154431e+003,5.884102e+002
3.155396e+003,5.876467e+002
3.156360e+003,5.927255e+002
3.157324e+003,5.986887e+002
3.158288e+003,6.016569e+002
3.159252e+003,6.015969e+002
3.160217e+003,5.946736e+002
3.161181e+003,5.918818e+002
3.162145e+003,5.965544e+002
3.163109e+003,6.020999e+002
3.164074e+003,6.074388e+002
3.165038e+003,6.094052e+002
3.166002e+003,6.083879e+002
3.166966e+003,6.098837e+002
3.167931e+003,6.147030e+002
3.168895e+003,6.164829e+002
3.169859e+003,6.148823e+002
3.170823e+003,6.135559e+002
3.171788e+003,6.128170e+002
3.172752e+003,6.149806e+002
3.173716e+003,6.189503e+002
3.174680e+003,6.240557e+002
3.175645e+003,6.281108e+002
3.176609e+003,6.266431e+002
3.177573e+003,6.250596e+002
3.178537e+003,6.290452e+002
3.179501e+003,6.340195e+002
3.180466e+003,6.334056e+002
3.181430e+003,6.318271e+002
3.182394e+003,6.341923e+002
3.183358e+003,6.366719e+002
3.184323e+003,6.384297e+002
3.185287e+003,6.375261e+002
3.186251e+003,6.334791e+002
3.187215e+003,6.295527e+002
3.188179e+003,6.272650e+002
3.189144e+003,6.290499e+002
3.190108e+003,6.358337e+002
3.191072e+003,6.392886e+002
3.192036e+003,6.376897e+002
3.193001e+003,6.368823e+002
3.193965e+003,6.368693e+002
3.194929e+003,6.375422e+002
3.195893e+003,6.391018e+002
3.196858e+003,6.436155e+002
3.197822e+003,6.481423e+002
3.198786e+003,6.460056e+002
3.199750e+003,6.418103e+002
3.200715e+003,6.421665e+002
3.201679e+003,6.448319e+002
3.202643e+003,6.462780e+002
3.203607e+003,6.471498e+002
3.204572e+003,6.470985e+002
3.205536e+003,6.484017e+002
3.206500e+003,6.529038e+002
3.207464e+003,6.566599e+002
3.208428e+003,6.583850e+002
3.209393e+003,6.567074e+002
3.210357e+003,6.514955e+002
3.211321e+003,6.481990e+002
3.212285e+003,6.492478e+002
3.213250e+003,6.523704e+002
3.214214e+003,6.578630e+002
3.215178e+003,6.605417e+002
3.216142e+003,6.603239e+002
3.217106e+003,6.555964e+002
3.218071e+003,6.496138e+002
3.219035e+003,6.487954e+002
3.219999e+003,6.529276e+002
3.220963e+003,6.603779e+002
3.221928e+003,6.677515e+002
3.222892e+003,6.681809e+002
3.223856e+003,6.662794e+002
3.224820e+003,6.699491e+002
3.225785e+003,6.748942e+002
3.226749e+003,6.788126e+002
3.227713e+003,6.807872e+002
3.228677e+003,6.803257e+002
3.229642e+003,6.792202e+002
3.230606e+003,6.784283e+002
3.231570e+003,6.812521e+002
3.232534e+003,6.892458e+002
3.233499e+003,6.922167e+002
3.234463e+003,6.838832e+002
3.235427e+003,6.819839e+002
3.236391e+003,6.862324e+002
3.237355e+003,6.885369e+002
3.238320e+003,6.896802e+002
3.239284e+003,6.943574e+002
3.240248e+003,7.004132e+002
3.241212e+003,7.026042e+002
3.242177e+003,7.019899e+002
3.243141e+003,6.999480e+002
3.244105e+003,6.979480e+002
3.245069e+003,6.995200e+002
3.246033e+003,7.014603e+002
3.246998e+003,6.991266e+002
3.247962e+003,6.983164e+002
3.248926e+003,7.022408e+002
3.249890e+003,7.057089e+002
3.250855e+003,7.071870e+002
3.251819e+003,7.090881e+002
3.252783e+003,7.122063e+002
3.253747e+003,7.137925e+002
3.254712e+003,7.123521e+002
3.255676e+003,7.139886e+002
3.256640e+003,7.190601e+002
3.257604e+003,7.230685e+002
3.258569e+003,7.259233e+002
3.259533e+003,7.274486e+002
3.260497e+003,7.281583e+002
3.261461e+003,7.285204e+002
3.262426e+003,7.289730e+002
3.263390e+003,7.297216e+002
3.264354e+003,7.317576e+002
3.265318e+003,7.369542e+002
3.266282e+003,7.427955e+002
3.267247e+003,7.478047e+002
3.268211e+003,7.503699e+002
3.269175e+003,7.485051e+002
3.270139e+003,7.479498e+002
3.271104e+003,7.498563e+002
3.272068e+003,7.533423e+002
3.273032e+003,7.575216e+002
3.273996e+003,7.592474e+002
3.274960e+003,7.576898e+002
3.275925e+003,7.566373e+002
3.276889e+003,7.563492e+002
3.277853e+003,7.621428e+002
3.278817e+003,7.705363e+002
3.279782e+003,7.717058e+002
3.280746e+003,7.688673e+002
3.281710e+003,7.651161e+002
3.282674e+003,7.630461e+002
3.283639e+003,7.646086e+002
3.284603e+003,7.677539e+002
3.285567e+003,7.708175e+002
3.286531e+003,7.726522e+002
3.287496e+003,7.702498e+002
3.288460e+003,7.703489e+002
3.289424e+003,7.759281e+002
3.290388e+003,7.783466e+002
3.291353e+003,7.770668e+002
3.292317e+003,7.781138e+002
3.293281e+003,7.816118e+002
3.294245e+003,7.830140e+002
3.295209e+003,7.822781e+002
3.296174e+003,7.842004e+002
3.297138e+003,7.874160e+002
3.298102e+003,7.847959e+002
3.299066e+003,7.801282e+002
3.300031e+003,7.791914e+002
3.300995e+003,7.818064e+002
3.301959e+003,7.922006e+002
3.302923e+003,7.979448e+002
3.303887e+003,7.931333e+002
3.304852e+003,7.902098e+002
3.305816e+003,7.963431e+002
3.306780e+003,7.996630e+002
3.307744e+003,7.910784e+002
3.308709e+003,7.898071e+002
3.309673e+003,7.986063e+002
3.310637e+003,8.005294e+002
3.311601e+003,7.966627e+002
3.312566e+003,7.939873e+002
3.313530e+003,7.937974e+002
3.314494e+003,7.982083e+002
3.315458e+003,8.036848e+002
3.316423e+003,8.045105e+002
3.317387e+003,8.030985e+002
3.318351e+003,8.025551e+002
3.319315e+003,8.040209e+002
3.320280e+003,8.108649e+002
3.321244e+003,8.163434e+002
3.322208e+003,8.179587e+002
3.323172e+003,8.185544e+002
3.324136e+003,8.189590e+002
3.325101e+003,8.197671e+002
3.326065e+003,8.210858e+002
3.327029e+003,8.223743e+002
3.327993e+003,8.234651e+002
3.328958e+003,8.231232e+002
3.329922e+003,8.217323e+002
3.330886e+003,8.218394e+002
3.331850e+003,8.233466e+002
3.332814e+003,8.276121e+002
3.333779e+003,8.310222e+002
3.334743e+003,8.292145e+002
3.335707e+003,8.283599e+002
3.336671e+003,8.330330e+002
3.337636e+003,8.372740e+002
3.338600e+003,8.354158e+002
3.339564e+003,8.349037e+002
3.340528e+003,8.392927e+002
3.341493e+003,8.459889e+002
3.342457e+003,8.545499e+002
3.343421e+003,8.584703e+002
3.344385e+003,8.579210e+002
3.345350e+003,8.548636e+002
3.346314e+003,8.513398e+002
3.347278e+003,8.509149e+002
3.348242e+003,8.528590e+002
3.349207e+003,8.560034e+002
3.350171e+003,8.594663e+002
3.351135e+003,8.619307e+002
3.352099e+003,8.639772e+002
3.353063e+003,8.646110e+002
3.354028e+003,8.687625e+002
3.354992e+003,8.776984e+002
3.355956e+003,8.830774e+002
3.356920e+003,8.823883e+002
3.357885e+003,8.810878e+002
3.358849e+003,8.808899e+002
3.359813e+003,8.776122e+002
3.360777e+003,8.715881e+002
3.361741e+003,8.751191e+002
3.362706e+003,8.830259e+002
3.363670e+003,8.840302e+002
3.364634e+003,8.829884e+002
3.365598e+003,8.868843e+002
3.366563e+003,8.903212e+002
3.367527e+003,8.893824e+002
3.368491e+003,8.878369e+002
3.369455e+003,8.884830e+002
3.370420e+003,8.910316e+002
3.371384e+003,8.963645e+002
3.372348e+003,9.022769e+002
3.373312e+003,9.084990e+002
3.374277e+003,9.100929e+002
3.375241e+003,9.074961e+002
3.376205e+003,9.010612e+002
3.377169e+003,8.953264e+002
3.378134e+003,9.001604e+002
3.379098e+003,9.091094e+002
3.380062e+003,9.093578e+002
3.381026e+003,9.074771e+002
3.381990e+003,9.145072e+002
3.382955e+003,9.199399e+002
3.383919e+003,9.173816e+002
3.384883e+003,9.148375e+002
3.385847e+003,9.140250e+002
3.386812e+003,9.133009e+002
3.387776e+003,9.121290e+002
3.388740e+003,9.102637e+002
3.389704e+003,9.080400e+002
3.390668e+003,9.099478e+002
3.391633e+003,9.150729e+002
3.392597e+003,9.177822e+002
3.393561e+003,9.197570e+002
3.394525e+003,9.248184e+002
3.395490e+003,9.283945e+002
3.396454e+003,9.268601e+002
3.397418e+003,9.249875e+002
3.398382e+003,9.254595e+002
3.399347e+003,9.272119e+002
3.400311e+003,9.298766e+002
3.401275e+003,9.318721e+002
3.402239e+003,9.322152e+002
3.403204e+003,9.377502e+002
3.404168e+003,9.459395e+002
3.405132e+003,9.409939e+002
3.406096e+003,9.319313e+002
3.407061e+003,9.403820e+002
3.408025e+003,9.562639e+002
3.408989e+003,9.676718e+002
3.409953e+003,9.716322e+002
3.410917e+003,9.622441e+002
3.411882e+003,9.506252e+002
3.412846e+003,9.418340e+002
3.413810e+003,9.394346e+002
3.414774e+003,9.439060e+002
3.415739e+003,9.490319e+002
3.416703e+003,9.529438e+002
3.417667e+003,9.520009e+002
3.418631e+003,9.479867e+002
3.419595e+003,9.491307e+002
3.420560e+003,9.533607e+002
3.421524e+003,9.544818e+002
3.422488e+003,9.546493e+002
3.423452e+003,9.587889e+002
3.424417e+003,9.612324e+002
3.425381e+003,9.573597e+002
3.426345e+003,9.540514e+002
3.427309e+003,9.533173e+002
3.428274e+003,9.579421e+002
3.429238e+003,9.675881e+002
3.430202e+003,9.713121e+002
3.431166e+003,9.671262e+002
3.432131e+003,9.680247e+002
3.433095e+003,9.721898e+002
3.434059e+003,9.708190e+002
3.435023e+003,9.680907e+002
3.435988e+003,9.698790e+002
3.436952e+003,9.730941e+002
3.437916e+003,9.755415e+002
3.438880e+003,9.794189e+002
3.439844e+003,9.859685e+002
3.440809e+003,9.892031e+002
3.441773e+003,9.842511e+002
3.442737e+003,9.828586e+002
3.443701e+003,9.857065e+002
3.444666e+003,9.866796e+002
3.445630e+003,9.865883e+002
3.446594e+003,9.878097e+002
3.447558e+003,9.907119e+002
3.448522e+003,9.962876e+002
3.449487e+003,1.000234e+003
3.450451e+003,9.978824e+002
3.451415e+003,9.963849e+002
3.452379e+003,1.005264e+003
3.453344e+003,1.010850e+003
3.454308e+003,1.008650e+003
3.455272e+003,1.007732e+003
3.456236e+003,1.008912e+003
3.457201e+003,1.012234e+003
3.458165e+003,1.016811e+003
3.459129e+003,1.021217e+003
3.460093e+003,1.024234e+003
3.461058e+003,1.023278e+003
3.462022e+003,1.022589e+003
3.462986e+003,1.031974e+003
3.463950e+003,1.040380e+003
3.464915e+003,1.037920e+003
3.465879e+003,1.038091e+003
3.466843e+003,1.042785e+003
3.467807e+003,1.044727e+003
3.468771e+003,1.043745e+003
3.469736e+003,1.048373e+003
3.470700e+003,1.057631e+003
3.471664e+003,1.057961e+003
3.472628e+003,1.054026e+003
3.473593e+003,1.062410e+003
3.474557e+003,1.072218e+003
3.475521e+003,1.070470e+003
3.476485e+003,1.066633e+003
3.477449e+003,1.064122e+003
3.478414e+003,1.065487e+003
3.479378e+003,1.071059e+003
3.480342e+003,1.076084e+003
3.481306e+003,1.078965e+003
3.482271e+003,1.081931e+003
3.483235e+003,1.084925e+003
3.484199e+003,1.086089e+003
3.485163e+003,1.086596e+003
3.486128e+003,1.089547e+003
3.487092e+003,1.090688e+003
3.488056e+003,1.086309e+003
3.489020e+003,1.084475e+003
3.489985e+003,1.089301e+003
3.490949e+003,1.096118e+003
3.491913e+003,1.103308e+003
3.492877e+003,1.104980e+003
3.493842e+003,1.100817e+003
3.494806e+003,1.100894e+003
3.495770e+003,1.103371e+003
3.496734e+003,1.101606e+003
3.497698e+003,1.101293e+003
3.498663e+003,1.110407e+003
3.499627e+003,1.119348e+003
3.500591e+003,0.000000e+000
