9.974011e+001,9.915993e+001
1.007043e+002,1.041498e+002
1.016686e+002,1.091833e+002
1.026328e+002,1.128227e+002
1.035970e+002,1.142253e+002
1.045613e+002,1.145284e+002
1.055255e+002,1.137690e+002
1.064897e+002,1.115493e+002
1.074540e+002,1.061733e+002
1.084182e+002,1.004348e+002
1.093824e+002,9.270882e+001
1.103467e+002,8.312688e+001
1.113109e+002,7.404634e+001
1.122751e+002,7.186810e+001
1.132394e+002,7.393030e+001
1.142036e+002,7.854004e+001
1.151678e+002,8.400642e+001
1.161321e+002,8.825352e+001
1.170963e+002,8.890437e+001
1.180605e+002,8.651929e+001
1.190248e+002,8.244371e+001
1.199890e+002,7.840837e+001
1.209532e+002,7.668939e+001
1.219175e+002,7.554994e+001
1.228817e+002,7.480791e+001
1.238459e+002,7.426016e+001
1.248102e+002,7.358247e+001
1.257744e+002,6.988057e+001
1.267386e+002,6.869278e+001
1.277029e+002,7.174443e+001
1.286671e+002,7.747011e+001
1.296313e+002,8.033586e+001
1.305956e+002,7.451773e+001
1.315598e+002,6.713217e+001
1.325240e+002,6.054343e+001
1.334883e+002,5.630351e+001
1.344525e+002,5.486189e+001
1.354167e+002,5.608501e+001
1.363810e+002,5.857932e+001
1.373452e+002,6.166219e+001
1.383094e+002,6.491786e+001
1.392737e+002,6.887076e+001
1.402379e+002,6.794664e+001
1.412021e+002,5.909328e+001
1.421664e+002,4.738318e+001
1.431306e+002,4.065154e+001
1.440948e+002,4.416203e+001
1.450591e+002,4.913220e+001
1.460233e+002,5.547780e+001
1.469875e+002,6.184042e+001
1.479518e+002,6.586586e+001
1.489160e+002,6.313855e+001
1.498802e+002,5.820709e+001
1.508445e+002,5.292108e+001
1.518087e+002,4.874660e+001
1.527729e+002,4.701981e+001
1.537372e+002,4.907277e+001
1.547014e+002,5.118425e+001
1.556656e+002,5.082353e+001
1.566299e+002,4.673351e+001
1.575941e+002,3.954553e+001
1.585583e+002,3.493318e+001
1.595226e+002,3.334251e+001
1.604868e+002,3.345053e+001
1.614510e+002,3.373280e+001
1.624153e+002,3.271938e+001
1.633795e+002,3.003426e+001
1.643438e+002,2.638986e+001
1.653080e+002,2.300348e+001
1.662722e+002,2.112924e+001
1.672365e+002,2.153012e+001
1.682007e+002,2.255739e+001
1.691649e+002,2.455630e+001
1.701292e+002,2.746603e+001
1.710934e+002,3.092407e+001
1.720576e+002,3.309836e+001
1.730219e+002,3.424281e+001
1.739861e+002,3.522900e+001
1.749503e+002,3.566510e+001
1.759146e+002,3.445760e+001
1.768788e+002,2.948125e+001
1.778430e+002,2.342279e+001
1.788073e+002,1.898955e+001
1.797715e+002,1.788657e+001
1.807357e+002,2.108920e+001
1.817000e+002,2.541069e+001
1.826642e+002,2.614545e+001
1.836284e+002,2.636014e+001
1.845927e+002,2.956329e+001
1.855569e+002,4.025786e+001
1.865211e+002,4.600096e+001
1.874854e+002,4.052135e+001
1.884496e+002,2.937787e+001
1.894138e+002,1.890718e+001
1.903781e+002,1.679265e+001
1.913423e+002,2.115976e+001
1.923065e+002,2.393723e+001
1.932708e+002,2.352347e+001
1.942350e+002,2.059793e+001
1.951992e+002,2.011499e+001
1.961635e+002,2.715714e+001
1.971277e+002,3.083765e+001
1.980919e+002,2.790459e+001
1.990562e+002,1.867802e+001
2.000204e+002,1.208862e+001
2.009846e+002,9.215958e+000
2.019489e+002,8.009995e+000
2.029131e+002,9.149918e+000
2.038773e+002,1.288599e+001
2.048416e+002,1.621747e+001
2.058058e+002,1.492511e+001
2.067700e+002,1.232996e+001
2.077343e+002,1.093423e+001
2.086985e+002,1.254138e+001
2.096627e+002,1.599689e+001
2.106270e+002,1.686588e+001
2.115912e+002,1.574924e+001
2.125554e+002,1.408252e+001
2.135197e+002,1.338739e+001
2.144839e+002,1.345493e+001
2.154481e+002,1.300778e+001
2.164124e+002,1.341675e+001
2.173766e+002,1.433203e+001
2.183408e+002,1.463617e+001
2.193051e+002,1.191171e+001
2.202693e+002,1.073163e+001
2.212335e+002,1.241623e+001
2.221978e+002,1.565936e+001
2.231620e+002,1.814880e+001
2.241262e+002,1.854565e+001
2.250904e+002,1.921542e+001
2.260547e+002,1.995422e+001
2.270189e+002,2.022397e+001
2.279831e+002,1.943335e+001
2.289474e+002,1.825891e+001
2.299116e+002,1.775140e+001
2.308758e+002,1.703290e+001
2.318401e+002,1.579825e+001
2.328043e+002,1.428912e+001
2.337685e+002,1.610611e+001
2.347328e+002,2.041745e+001
2.356970e+002,2.320651e+001
2.366612e+002,2.356778e+001
2.376255e+002,2.208157e+001
2.385897e+002,1.956848e+001
2.395539e+002,1.544229e+001
2.405182e+002,1.148111e+001
2.414824e+002,8.537445e+000
2.424466e+002,7.048553e+000
2.434109e+002,7.906036e+000
2.443751e+002,1.212457e+001
2.453393e+002,1.754227e+001
2.463036e+002,2.183075e+001
2.472678e+002,2.277667e+001
2.482320e+002,2.088464e+001
2.491963e+002,1.992200e+001
2.501605e+002,1.875717e+001
2.511247e+002,1.836719e+001
2.520890e+002,2.082724e+001
2.530532e+002,3.083975e+001
2.540174e+002,3.664322e+001
2.549817e+002,3.595956e+001
2.559459e+002,3.262399e+001
2.569102e+002,3.308087e+001
2.578744e+002,4.235068e+001
2.588386e+002,4.823349e+001
2.598029e+002,4.765677e+001
2.607671e+002,4.242642e+001
2.617313e+002,3.646310e+001
2.626956e+002,3.428369e+001
2.636598e+002,3.520651e+001
2.646240e+002,3.701382e+001
2.655883e+002,3.858740e+001
2.665525e+002,3.955011e+001
2.675167e+002,4.224960e+001
2.684810e+002,4.971390e+001
2.694452e+002,5.494672e+001
2.704094e+002,5.424710e+001
2.713737e+002,4.724106e+001
2.723379e+002,4.426059e+001
2.733021e+002,4.827444e+001
2.742664e+002,5.147333e+001
2.752306e+002,5.128738e+001
2.761948e+002,4.735651e+001
2.771591e+002,4.362234e+001
2.781233e+002,4.428806e+001
2.790875e+002,4.705307e+001
2.800518e+002,5.021283e+001
2.810160e+002,5.251093e+001
2.819802e+002,5.378751e+001
2.829445e+002,5.469492e+001
2.839087e+002,5.544794e+001
2.848729e+002,5.643530e+001
2.858372e+002,5.812552e+001
2.868014e+002,6.117038e+001
2.877656e+002,6.242908e+001
2.887299e+002,5.876682e+001
2.896941e+002,5.372269e+001
2.906583e+002,5.060721e+001
2.916226e+002,5.162912e+001
2.925868e+002,5.396765e+001
2.935510e+002,5.776511e+001
2.945153e+002,6.167554e+001
2.954795e+002,6.390475e+001
2.964437e+002,6.230728e+001
2.974080e+002,5.899661e+001
2.983722e+002,5.805331e+001
2.993364e+002,5.941956e+001
3.003007e+002,6.250131e+001
3.012649e+002,6.625784e+001
3.022291e+002,6.999011e+001
3.031934e+002,7.278119e+001
3.041576e+002,7.510300e+001
3.051218e+002,7.701529e+001
3.060861e+002,7.808917e+001
3.070503e+002,7.478751e+001
3.080145e+002,7.155197e+001
3.089788e+002,7.005099e+001
3.099430e+002,7.063077e+001
3.109072e+002,7.337604e+001
3.118715e+002,8.061365e+001
3.128357e+002,8.838617e+001
3.137999e+002,9.302994e+001
3.147642e+002,9.404550e+001
3.157284e+002,9.230368e+001
3.166926e+002,9.011282e+001
3.176569e+002,8.929694e+001
3.186211e+002,8.949222e+001
3.195853e+002,9.031024e+001
3.205496e+002,9.133160e+001
3.215138e+002,9.214246e+001
3.224780e+002,9.161194e+001
3.234423e+002,9.143832e+001
3.244065e+002,9.317578e+001
3.253707e+002,9.613022e+001
3.263350e+002,9.679117e+001
3.272992e+002,9.309073e+001
3.282634e+002,9.077451e+001
3.292277e+002,8.953366e+001
3.301919e+002,8.969464e+001
3.311561e+002,9.214828e+001
3.321204e+002,1.000365e+002
3.330846e+002,1.075608e+002
3.340488e+002,1.120309e+002
3.350131e+002,1.129323e+002
3.359773e+002,1.109973e+002
3.369415e+002,1.071301e+002
3.379058e+002,1.027379e+002
3.388700e+002,1.000376e+002
3.398342e+002,9.958966e+001
3.407985e+002,1.015005e+002
3.417627e+002,1.062307e+002
3.427269e+002,1.161437e+002
3.436912e+002,1.223184e+002
3.446554e+002,1.223231e+002
3.456196e+002,1.175797e+002
3.465839e+002,1.146804e+002
3.475481e+002,1.184084e+002
3.485123e+002,1.233462e+002
3.494765e+002,1.273789e+002
3.504408e+002,1.292441e+002
3.514050e+002,1.285607e+002
3.523692e+002,1.240242e+002
3.533335e+002,1.194699e+002
3.542977e+002,1.188920e+002
3.552619e+002,1.235743e+002
3.562262e+002,1.325650e+002
3.571904e+002,1.398505e+002
3.581546e+002,1.441391e+002
3.591189e+002,1.465718e+002
3.600831e+002,1.464838e+002
3.610473e+002,1.436559e+002
3.620116e+002,1.401626e+002
3.629758e+002,1.353647e+002
3.639400e+002,1.330503e+002
3.649043e+002,1.359987e+002
3.658685e+002,1.433885e+002
3.668327e+002,1.495312e+002
3.677970e+002,1.476648e+002
3.687612e+002,1.449125e+002
3.697254e+002,1.443109e+002
3.706897e+002,1.465073e+002
3.716539e+002,1.499808e+002
3.726181e+002,1.504339e+002
3.735824e+002,1.477535e+002
3.745466e+002,1.459131e+002
3.755108e+002,1.469552e+002
3.764751e+002,1.511803e+002
3.774393e+002,1.547433e+002
3.784035e+002,1.566903e+002
3.793678e+002,1.574178e+002
3.803320e+002,1.571200e+002
3.812962e+002,1.562985e+002
3.822605e+002,1.559462e+002
3.832247e+002,1.552516e+002
3.841889e+002,1.554297e+002
3.851532e+002,1.572269e+002
3.861174e+002,1.602186e+002
3.870816e+002,1.630484e+002
3.880459e+002,1.638421e+002
3.890101e+002,1.635524e+002
3.899743e+002,1.635588e+002
3.909386e+002,1.644971e+002
3.919028e+002,1.664082e+002
3.928670e+002,1.680424e+002
3.938313e+002,1.674463e+002
3.947955e+002,1.662098e+002
3.957597e+002,1.658514e+002
3.967240e+002,1.661724e+002
3.976882e+002,1.643871e+002
3.986524e+002,1.554761e+002
3.996167e+002,1.509127e+002
4.005809e+002,1.526695e+002
4.015451e+002,1.588164e+002
4.025094e+002,1.652777e+002
4.034736e+002,1.719651e+002
4.044378e+002,1.786555e+002
4.054021e+002,1.839283e+002
4.063663e+002,1.870873e+002
4.073305e+002,1.875706e+002
4.082948e+002,1.843905e+002
4.092590e+002,1.779833e+002
4.102232e+002,1.745021e+002
4.111875e+002,1.748255e+002
4.121517e+002,1.768874e+002
4.131159e+002,1.761750e+002
4.140802e+002,1.723733e+002
4.150444e+002,1.720112e+002
4.160086e+002,1.751290e+002
4.169729e+002,1.804443e+002
4.179371e+002,1.856870e+002
4.189013e+002,1.866687e+002
4.198656e+002,1.858410e+002
4.208298e+002,1.881761e+002
4.217940e+002,1.919086e+002
4.227583e+002,1.943969e+002
4.237225e+002,1.933876e+002
4.246867e+002,1.916815e+002
4.256510e+002,1.907896e+002
4.266152e+002,1.895132e+002
4.275794e+002,1.877245e+002
4.285437e+002,1.859439e+002
4.295079e+002,1.845639e+002
4.304721e+002,1.829015e+002
4.314364e+002,1.805968e+002
4.324006e+002,1.805248e+002
4.333648e+002,1.855872e+002
4.343291e+002,1.975469e+002
4.352933e+002,2.050458e+002
4.362575e+002,2.050858e+002
4.372218e+002,2.024252e+002
4.381860e+002,2.012572e+002
4.391502e+002,2.040020e+002
4.401145e+002,2.063614e+002
4.410787e+002,2.018595e+002
4.420429e+002,1.955977e+002
4.430072e+002,1.928562e+002
4.439714e+002,1.965409e+002
4.449356e+002,2.047841e+002
4.458999e+002,2.099058e+002
4.468641e+002,2.132929e+002
4.478283e+002,2.150941e+002
4.487926e+002,2.161130e+002
4.497568e+002,2.173907e+002
4.507210e+002,2.190943e+002
4.516853e+002,2.151458e+002
4.526495e+002,2.112235e+002
4.536137e+002,2.113699e+002
4.545780e+002,2.162762e+002
4.555422e+002,2.208987e+002
4.565064e+002,2.214807e+002
4.574707e+002,2.217021e+002
4.584349e+002,2.218027e+002
4.593991e+002,2.213711e+002
4.603634e+002,2.196980e+002
4.613276e+002,2.165702e+002
4.622918e+002,2.134676e+002
4.632561e+002,2.136256e+002
4.642203e+002,2.185158e+002
4.651845e+002,2.267982e+002
4.661488e+002,2.334451e+002
4.671130e+002,2.379245e+002
4.680772e+002,2.376540e+002
4.690415e+002,2.308181e+002
4.700057e+002,2.209328e+002
4.709699e+002,2.135372e+002
4.719342e+002,2.104840e+002
4.728984e+002,2.099375e+002
4.738626e+002,2.120620e+002
4.748269e+002,2.151591e+002
4.757911e+002,2.172617e+002
4.767553e+002,2.168256e+002
4.777196e+002,2.158932e+002
4.786838e+002,2.169679e+002
4.796480e+002,2.183770e+002
4.806123e+002,2.187151e+002
4.815765e+002,2.174305e+002
4.825407e+002,2.160913e+002
4.835050e+002,2.152249e+002
4.844692e+002,2.148815e+002
4.854334e+002,2.151497e+002
4.863977e+002,2.145592e+002
4.873619e+002,2.108871e+002
4.883261e+002,2.060985e+002
4.892904e+002,2.058051e+002
4.902546e+002,2.083233e+002
4.912188e+002,2.117730e+002
4.921831e+002,2.145155e+002
4.931473e+002,2.157273e+002
4.941115e+002,2.143042e+002
4.950758e+002,2.121702e+002
4.960400e+002,2.116795e+002
4.970042e+002,2.140774e+002
4.979685e+002,2.189109e+002
4.989327e+002,2.219408e+002
4.998969e+002,2.190448e+002
5.008612e+002,2.164948e+002
5.018254e+002,2.152043e+002
5.027896e+002,2.146705e+002
5.037539e+002,2.139035e+002
5.047181e+002,2.166416e+002
5.056823e+002,2.189964e+002
5.066466e+002,2.192317e+002
5.076108e+002,2.183072e+002
5.085750e+002,2.174233e+002
5.095393e+002,2.164651e+002
5.105035e+002,2.141399e+002
5.114677e+002,2.110561e+002
5.124320e+002,2.092227e+002
5.133962e+002,2.109101e+002
5.143605e+002,2.176035e+002
5.153247e+002,2.279726e+002
5.162889e+002,2.340365e+002
5.172532e+002,2.368708e+002
5.182174e+002,2.388172e+002
5.191816e+002,2.401393e+002
5.201459e+002,2.394510e+002
5.211101e+002,2.420442e+002
5.220743e+002,2.504366e+002
5.230386e+002,2.578837e+002
5.240028e+002,2.637240e+002
5.249670e+002,2.690355e+002
5.259313e+002,2.751587e+002
5.268955e+002,2.767757e+002
5.278597e+002,2.764191e+002
5.288240e+002,2.774208e+002
5.297882e+002,2.807130e+002
5.307524e+002,2.860522e+002
5.317167e+002,2.933965e+002
5.326809e+002,3.055914e+002
5.336451e+002,3.162997e+002
5.346094e+002,3.212046e+002
5.355736e+002,3.212149e+002
5.365378e+002,3.208125e+002
5.375021e+002,3.232868e+002
5.384663e+002,3.281404e+002
5.394305e+002,3.357157e+002
5.403948e+002,3.440664e+002
5.413590e+002,3.501294e+002
5.423232e+002,3.509004e+002
5.432875e+002,3.510925e+002
5.442517e+002,3.614411e+002
5.452159e+002,3.768603e+002
5.461802e+002,3.898374e+002
5.471444e+002,3.949187e+002
5.481086e+002,3.917910e+002
5.490729e+002,3.874952e+002
5.500371e+002,3.856779e+002
5.510013e+002,3.852129e+002
5.519656e+002,3.852739e+002
5.529298e+002,3.859394e+002
5.538940e+002,3.891165e+002
5.548583e+002,3.932672e+002
5.558225e+002,3.945343e+002
5.567867e+002,3.935882e+002
5.577510e+002,3.912085e+002
5.587152e+002,3.883773e+002
5.596794e+002,3.868720e+002
5.606437e+002,3.862343e+002
5.616079e+002,3.834931e+002
5.625721e+002,3.796180e+002
5.635364e+002,3.767895e+002
5.645006e+002,3.768302e+002
5.654648e+002,3.769516e+002
5.664291e+002,3.683453e+002
5.673933e+002,3.552712e+002
5.683575e+002,3.470055e+002
5.693218e+002,3.481339e+002
5.702860e+002,3.562560e+002
5.712502e+002,3.609134e+002
5.722145e+002,3.637126e+002
5.731787e+002,3.631093e+002
5.741429e+002,3.601159e+002
5.751072e+002,3.562905e+002
5.760714e+002,3.528305e+002
5.770356e+002,3.485254e+002
5.779999e+002,3.467061e+002
5.789641e+002,3.467476e+002
5.799283e+002,3.475821e+002
5.808926e+002,3.488063e+002
5.818568e+002,3.512110e+002
5.828210e+002,3.532127e+002
5.837853e+002,3.507576e+002
5.847495e+002,3.451577e+002
5.857137e+002,3.378492e+002
5.866780e+002,3.289309e+002
5.876422e+002,3.163138e+002
5.886064e+002,3.100434e+002
5.895707e+002,3.153944e+002
5.905349e+002,3.209300e+002
5.914991e+002,3.194693e+002
5.924634e+002,3.100384e+002
5.934276e+002,3.001903e+002
5.943918e+002,2.964419e+002
5.953560e+002,2.950162e+002
5.963203e+002,2.941552e+002
5.972845e+002,2.927528e+002
5.982487e+002,2.903461e+002
5.992130e+002,2.871468e+002
6.001772e+002,2.862668e+002
6.011414e+002,2.882008e+002
6.021057e+002,2.897509e+002
6.030699e+002,2.891734e+002
6.040341e+002,2.867624e+002
6.049984e+002,2.856571e+002
6.059626e+002,2.797985e+002
6.069268e+002,2.697696e+002
6.078911e+002,2.618667e+002
6.088553e+002,2.575221e+002
6.098195e+002,2.551216e+002
6.107838e+002,2.525002e+002
6.117480e+002,2.522812e+002
6.127122e+002,2.530900e+002
6.136765e+002,2.523911e+002
6.146407e+002,2.492832e+002
6.156049e+002,2.446138e+002
6.165692e+002,2.411797e+002
6.175334e+002,2.392231e+002
6.184976e+002,2.342686e+002
6.194619e+002,2.266526e+002
6.204261e+002,2.191690e+002
6.213903e+002,2.144453e+002
6.223546e+002,2.116905e+002
6.233188e+002,2.098327e+002
6.242830e+002,2.095124e+002
6.252473e+002,2.081320e+002
6.262115e+002,2.046742e+002
6.271757e+002,1.994588e+002
6.281400e+002,1.937247e+002
6.291042e+002,1.868363e+002
6.300684e+002,1.809986e+002
6.310327e+002,1.773355e+002
6.319969e+002,1.760396e+002
6.329611e+002,1.767755e+002
6.339254e+002,1.791557e+002
6.348896e+002,1.812318e+002
6.358538e+002,1.796565e+002
6.368181e+002,1.752852e+002
6.377823e+002,1.701703e+002
6.387465e+002,1.655463e+002
6.397108e+002,1.603912e+002
6.406750e+002,1.610051e+002
6.416392e+002,1.709290e+002
6.426035e+002,1.778944e+002
6.435677e+002,1.749063e+002
6.445319e+002,1.628907e+002
6.454962e+002,1.518271e+002
6.464604e+002,1.516987e+002
6.474246e+002,1.537444e+002
6.483889e+002,1.493730e+002
6.493531e+002,1.391402e+002
6.503173e+002,1.293576e+002
6.512816e+002,1.290576e+002
6.522458e+002,1.385830e+002
6.532100e+002,1.389229e+002
6.541743e+002,1.288065e+002
6.551385e+002,1.185056e+002
6.561027e+002,1.163909e+002
6.570670e+002,1.231822e+002
6.580312e+002,1.266491e+002
6.589954e+002,1.216476e+002
6.599597e+002,1.146980e+002
6.609239e+002,1.095905e+002
6.618881e+002,1.075573e+002
6.628524e+002,1.078063e+002
6.638166e+002,1.101673e+002
6.647808e+002,1.130055e+002
6.657451e+002,1.126410e+002
6.667093e+002,1.093877e+002
6.676735e+002,1.058757e+002
6.686378e+002,1.050675e+002
6.696020e+002,1.069162e+002
6.705662e+002,1.060504e+002
6.715305e+002,1.024017e+002
6.724947e+002,9.665115e+001
6.734589e+002,8.939218e+001
6.744232e+002,8.196915e+001
6.753874e+002,7.756656e+001
6.763516e+002,7.590488e+001
6.773159e+002,7.694064e+001
6.782801e+002,8.159164e+001
6.792443e+002,8.675693e+001
6.802086e+002,8.816733e+001
6.811728e+002,8.298581e+001
6.821370e+002,7.448184e+001
6.831013e+002,6.882541e+001
6.840655e+002,6.628342e+001
6.850297e+002,6.541690e+001
6.859940e+002,6.473935e+001
6.869582e+002,6.351535e+001
6.879224e+002,6.201834e+001
6.888867e+002,5.950443e+001
6.898509e+002,5.644577e+001
6.908151e+002,5.393491e+001
6.917794e+002,5.276852e+001
6.927436e+002,5.334793e+001
6.937078e+002,5.615140e+001
6.946721e+002,5.769016e+001
6.956363e+002,5.708383e+001
6.966005e+002,5.631168e+001
6.975648e+002,5.618430e+001
6.985290e+002,5.606265e+001
6.994932e+002,5.405331e+001
7.004575e+002,4.881345e+001
7.014217e+002,4.242972e+001
7.023859e+002,3.670248e+001
7.033502e+002,3.280423e+001
7.043144e+002,3.118503e+001
7.052786e+002,3.152396e+001
7.062429e+002,3.263046e+001
7.072071e+002,3.285074e+001
7.081713e+002,3.427402e+001
7.091356e+002,3.621066e+001
7.100998e+002,3.683310e+001
7.110640e+002,3.478604e+001
7.120283e+002,3.234433e+001
7.129925e+002,3.139090e+001
7.139567e+002,3.065347e+001
7.149210e+002,3.007693e+001
7.158852e+002,2.924197e+001
7.168494e+002,2.719046e+001
7.178137e+002,2.245456e+001
7.187779e+002,1.692856e+001
7.197421e+002,1.582828e+001
7.207064e+002,1.848233e+001
7.216706e+002,2.196915e+001
7.226348e+002,2.449808e+001
7.235991e+002,2.696109e+001
7.245633e+002,2.992160e+001
7.255275e+002,3.124484e+001
7.264918e+002,3.028360e+001
7.274560e+002,2.769418e+001
7.284202e+002,2.482974e+001
7.293845e+002,2.305392e+001
7.303487e+002,2.268112e+001
7.313129e+002,2.210611e+001
7.322772e+002,1.951053e+001
7.332414e+002,1.617862e+001
7.342056e+002,1.430484e+001
7.351699e+002,1.567935e+001
7.361341e+002,2.065579e+001
7.370983e+002,2.870206e+001
7.380626e+002,3.828885e+001
7.390268e+002,4.197537e+001
7.399910e+002,3.654880e+001
7.409553e+002,2.681656e+001
7.419195e+002,2.218851e+001
7.428837e+002,2.338919e+001
7.438480e+002,2.237900e+001
7.448122e+002,1.948438e+001
7.457764e+002,1.780896e+001
7.467407e+002,1.985547e+001
7.477049e+002,2.620251e+001
7.486691e+002,3.459375e+001
7.496334e+002,4.046362e+001
7.505976e+002,4.249304e+001
7.515618e+002,4.176880e+001
7.525261e+002,3.917310e+001
7.534903e+002,3.619312e+001
7.544545e+002,3.504773e+001
7.554188e+002,3.889771e+001
7.563830e+002,4.110022e+001
7.573472e+002,3.382654e+001
7.583115e+002,2.601575e+001
7.592757e+002,2.572363e+001
7.602399e+002,3.422278e+001
7.612042e+002,4.319934e+001
7.621684e+002,4.497327e+001
7.631326e+002,4.496594e+001
7.640969e+002,4.608667e+001
7.650611e+002,4.795959e+001
7.660253e+002,5.001746e+001
7.669896e+002,5.262878e+001
7.679538e+002,5.755334e+001
7.689180e+002,6.435376e+001
7.698823e+002,6.839685e+001
7.708465e+002,6.738220e+001
7.718107e+002,6.205725e+001
7.727750e+002,5.558447e+001
7.737392e+002,5.212292e+001
7.747034e+002,5.199731e+001
7.756677e+002,5.504639e+001
7.766319e+002,6.280603e+001
7.775961e+002,6.999866e+001
7.785604e+002,7.103345e+001
7.795246e+002,6.455762e+001
7.804888e+002,5.807178e+001
7.814531e+002,5.912500e+001
7.824173e+002,6.254382e+001
7.833815e+002,6.643188e+001
7.843458e+002,7.062720e+001
7.853100e+002,7.479395e+001
7.862742e+002,7.751086e+001
7.872385e+002,7.670093e+001
7.882027e+002,7.383240e+001
7.891669e+002,6.835413e+001
7.901312e+002,6.110901e+001
7.910954e+002,5.383167e+001
7.920596e+002,4.870581e+001
7.930239e+002,4.778613e+001
7.939881e+002,5.194800e+001
7.949523e+002,5.673877e+001
7.959166e+002,6.117200e+001
7.968808e+002,6.432373e+001
7.978450e+002,6.487805e+001
7.988093e+002,6.232629e+001
7.997735e+002,5.959033e+001
8.007377e+002,6.390479e+001
8.017020e+002,7.141846e+001
8.026662e+002,7.524011e+001
8.036304e+002,7.311096e+001
8.045947e+002,6.726074e+001
8.055589e+002,6.201868e+001
8.065231e+002,5.599634e+001
8.074874e+002,5.365308e+001
8.084516e+002,5.979761e+001
8.094158e+002,6.451550e+001
8.103801e+002,6.183228e+001
8.113443e+002,5.379749e+001
8.123085e+002,4.992761e+001
8.132728e+002,5.447961e+001
8.142370e+002,5.915576e+001
8.152012e+002,5.794836e+001
8.161655e+002,5.128967e+001
8.171297e+002,4.343213e+001
8.180939e+002,3.929333e+001
8.190582e+002,4.091235e+001
8.200224e+002,4.461243e+001
8.209866e+002,4.855750e+001
8.219509e+002,5.056970e+001
8.229151e+002,4.738098e+001
8.238793e+002,4.100464e+001
8.248436e+002,3.729993e+001
8.258078e+002,3.822058e+001
8.267720e+002,3.921448e+001
8.277363e+002,3.885303e+001
8.287005e+002,3.682312e+001
8.296647e+002,3.341699e+001
8.306290e+002,3.003345e+001
8.315932e+002,2.915808e+001
8.325574e+002,3.385950e+001
8.335217e+002,4.012964e+001
8.344859e+002,3.971240e+001
8.354501e+002,3.241162e+001
8.364144e+002,2.316016e+001
8.373786e+002,1.658069e+001
8.383428e+002,1.354370e+001
8.393071e+002,1.293091e+001
8.402713e+002,1.681689e+001
8.412355e+002,2.065588e+001
8.421998e+002,2.424915e+001
8.431640e+002,2.639661e+001
8.441282e+002,2.488733e+001
8.450925e+002,1.818616e+001
8.460567e+002,1.220764e+001
8.470209e+002,1.126489e+001
8.479852e+002,1.191064e+001
8.489494e+002,1.300903e+001
8.499136e+002,1.409790e+001
8.508779e+002,1.411731e+001
8.518421e+002,1.085547e+001
8.528063e+002,4.138794e+000
8.537706e+002,2.254028e+000
8.547348e+002,6.779541e+000
8.556990e+002,1.210315e+001
8.566633e+002,1.442285e+001
8.576275e+002,1.341077e+001
8.585917e+002,1.160071e+001
8.595560e+002,1.144141e+001
8.605202e+002,1.008850e+001
8.614844e+002,4.724365e+000
8.624487e+002,0.000000e+000
8.634129e+002,4.809570e-002
8.643771e+002,5.085327e+000
8.653414e+002,1.059399e+001
8.663056e+002,1.530725e+001
8.672698e+002,2.121643e+001
8.682341e+002,2.391101e+001
8.691983e+002,2.088965e+001
8.701625e+002,1.618250e+001
8.711268e+002,1.544397e+001
8.720910e+002,1.870300e+001
8.730552e+002,1.756824e+001
8.740195e+002,1.837671e+001
8.749837e+002,2.065759e+001
8.759479e+002,2.006384e+001
8.769122e+002,1.752576e+001
8.778764e+002,1.712903e+001
8.788406e+002,2.072583e+001
8.798049e+002,2.226514e+001
8.807691e+002,1.939075e+001
8.817333e+002,1.616504e+001
8.826976e+002,1.529712e+001
8.836618e+002,1.716736e+001
8.846260e+002,2.009363e+001
8.855903e+002,2.137610e+001
8.865545e+002,1.980359e+001
8.875187e+002,1.965515e+001
8.884830e+002,2.240149e+001
8.894472e+002,2.545850e+001
8.904114e+002,2.766357e+001
8.913757e+002,2.959119e+001
8.923399e+002,3.230139e+001
8.933041e+002,3.489978e+001
8.942684e+002,3.466724e+001
8.952326e+002,3.163306e+001
8.961968e+002,2.709680e+001
8.971611e+002,2.196729e+001
8.981253e+002,1.753430e+001
8.990895e+002,1.614368e+001
9.000538e+002,2.123425e+001
9.010180e+002,3.043066e+001
9.019822e+002,3.426184e+001
9.029465e+002,3.132715e+001
9.039107e+002,2.826099e+001
9.048749e+002,3.204468e+001
9.058392e+002,4.279089e+001
9.068034e+002,4.875244e+001
9.077676e+002,4.640356e+001
9.087319e+002,4.394092e+001
9.096961e+002,4.247388e+001
9.106603e+002,4.368225e+001
9.116246e+002,4.890332e+001
9.125888e+002,5.769775e+001
9.135530e+002,6.614258e+001
9.145173e+002,6.975342e+001
9.154815e+002,6.898206e+001
9.164457e+002,6.555383e+001
9.174100e+002,6.184521e+001
9.183742e+002,6.072400e+001
9.193384e+002,6.457410e+001
9.203027e+002,7.372998e+001
9.212669e+002,8.111279e+001
9.222311e+002,7.947327e+001
9.231954e+002,7.607788e+001
9.241596e+002,7.620605e+001
9.251238e+002,7.970142e+001
9.260881e+002,8.393811e+001
9.270523e+002,8.763318e+001
9.280165e+002,8.989575e+001
9.289808e+002,8.877563e+001
9.299450e+002,8.788953e+001
9.309092e+002,8.958704e+001
9.318735e+002,9.357068e+001
9.328377e+002,9.832690e+001
9.338019e+002,1.026735e+002
9.347662e+002,1.064619e+002
9.357304e+002,1.079731e+002
9.366946e+002,1.094604e+002
9.376589e+002,1.118907e+002
9.386231e+002,1.123479e+002
9.395873e+002,1.111688e+002
9.405516e+002,1.129464e+002
9.415158e+002,1.219408e+002
9.424800e+002,1.287151e+002
9.434443e+002,1.283993e+002
9.444085e+002,1.264711e+002
9.453727e+002,1.247111e+002
9.463370e+002,1.244247e+002
9.473012e+002,1.273662e+002
9.482654e+002,1.350272e+002
9.492297e+002,1.439913e+002
9.501939e+002,1.463527e+002
9.511581e+002,1.454611e+002
9.521224e+002,1.465757e+002
9.530866e+002,1.518684e+002
9.540508e+002,1.584493e+002
9.550151e+002,1.602219e+002
9.559793e+002,1.535049e+002
9.569435e+002,1.448922e+002
9.579078e+002,1.405231e+002
9.588720e+002,1.397878e+002
9.598362e+002,1.411930e+002
9.608005e+002,1.432090e+002
9.617647e+002,1.440839e+002
9.627289e+002,1.420862e+002
9.636932e+002,1.401987e+002
9.646574e+002,1.469440e+002
9.656216e+002,1.579778e+002
9.665859e+002,1.629867e+002
9.675501e+002,1.586826e+002
9.685143e+002,1.510366e+002
9.694786e+002,1.505590e+002
9.704428e+002,1.608499e+002
9.714070e+002,1.708624e+002
9.723713e+002,1.766014e+002
9.733355e+002,1.773785e+002
9.742997e+002,1.726335e+002
9.752640e+002,1.674540e+002
9.762282e+002,1.693643e+002
9.771924e+002,1.811187e+002
9.781567e+002,1.933589e+002
9.791209e+002,1.965140e+002
9.800851e+002,1.949485e+002
9.810494e+002,1.940122e+002
9.820136e+002,1.961101e+002
9.829778e+002,2.007959e+002
9.839421e+002,2.059659e+002
9.849063e+002,2.093323e+002
9.858705e+002,2.077600e+002
9.868348e+002,2.024065e+002
9.877990e+002,2.014640e+002
9.887632e+002,2.070490e+002
9.897275e+002,2.167157e+002
9.906917e+002,2.267828e+002
9.916559e+002,2.345238e+002
9.926202e+002,2.354308e+002
9.935844e+002,2.285403e+002
9.945486e+002,2.198240e+002
9.955129e+002,2.106995e+002
9.964771e+002,2.036111e+002
9.974413e+002,2.032350e+002
9.984056e+002,2.131616e+002
9.993698e+002,2.304266e+002
1.000334e+003,2.393439e+002
1.001298e+003,2.380256e+002
1.002263e+003,2.355370e+002
1.003227e+003,2.304448e+002
1.004191e+003,2.256680e+002
1.005155e+003,2.253595e+002
1.006119e+003,2.298472e+002
1.007084e+003,2.327528e+002
1.008048e+003,2.303416e+002
1.009012e+003,2.304077e+002
1.009976e+003,2.369250e+002
1.010941e+003,2.456732e+002
1.011905e+003,2.499312e+002
1.012869e+003,2.463253e+002
1.013833e+003,2.382769e+002
1.014798e+003,2.349468e+002
1.015762e+003,2.418354e+002
1.016726e+003,2.466174e+002
1.017690e+003,2.447589e+002
1.018654e+003,2.438002e+002
1.019619e+003,2.490264e+002
1.020583e+003,2.586350e+002
1.021547e+003,2.659832e+002
1.022511e+003,2.666361e+002
1.023476e+003,2.667474e+002
1.024440e+003,2.737356e+002
1.025404e+003,2.828351e+002
1.026368e+003,2.878550e+002
1.027333e+003,2.876917e+002
1.028297e+003,2.865464e+002
1.029261e+003,2.887628e+002
1.030225e+003,2.925525e+002
1.031190e+003,2.976029e+002
1.032154e+003,3.091517e+002
1.033118e+003,3.203475e+002
1.034082e+003,3.262122e+002
1.035047e+003,3.274567e+002
1.036011e+003,3.263016e+002
1.036975e+003,3.202262e+002
1.037939e+003,3.172865e+002
1.038903e+003,3.290264e+002
1.039868e+003,3.430231e+002
1.040832e+003,3.491071e+002
1.041796e+003,3.489689e+002
1.042760e+003,3.504517e+002
1.043725e+003,3.586851e+002
1.044689e+003,3.693523e+002
1.045653e+003,3.728262e+002
1.046617e+003,3.693513e+002
1.047582e+003,3.664423e+002
1.048546e+003,3.676686e+002
1.049510e+003,3.734044e+002
1.050474e+003,3.818429e+002
1.051438e+003,3.911305e+002
1.052403e+003,4.012681e+002
1.053367e+003,4.132064e+002
1.054331e+003,4.227141e+002
1.055295e+003,4.302930e+002
1.056260e+003,4.364117e+002
1.057224e+003,4.412761e+002
1.058188e+003,4.455765e+002
1.059152e+003,4.502142e+002
1.060117e+003,4.552196e+002
1.061081e+003,4.607650e+002
1.062045e+003,4.691726e+002
1.063009e+003,4.783263e+002
1.063974e+003,4.827313e+002
1.064938e+003,4.793888e+002
1.065902e+003,4.751125e+002
1.066866e+003,4.815082e+002
1.067830e+003,4.997578e+002
1.068795e+003,5.133881e+002
1.069759e+003,5.206464e+002
1.070723e+003,5.242948e+002
1.071687e+003,5.243014e+002
1.072652e+003,5.243652e+002
1.073616e+003,5.277600e+002
1.074580e+003,5.343993e+002
1.075544e+003,5.411427e+002
1.076509e+003,5.462008e+002
1.077473e+003,5.507947e+002
1.078437e+003,5.558606e+002
1.079401e+003,5.624044e+002
1.080365e+003,5.689248e+002
1.081330e+003,5.726625e+002
1.082294e+003,5.734542e+002
1.083258e+003,5.753212e+002
1.084222e+003,5.793940e+002
1.085187e+003,5.842833e+002
1.086151e+003,5.907141e+002
1.087115e+003,5.976873e+002
1.088079e+003,6.045880e+002
1.089043e+003,6.106217e+002
1.090008e+003,6.145638e+002
1.090972e+003,6.155930e+002
1.091936e+003,6.150044e+002
1.092900e+003,6.163396e+002
1.093865e+003,6.190214e+002
1.094829e+003,6.198641e+002
1.095793e+003,6.188906e+002
1.096757e+003,6.180430e+002
1.097722e+003,6.172582e+002
1.098686e+003,6.144954e+002
1.099650e+003,6.113917e+002
1.100614e+003,6.135619e+002
1.101578e+003,6.161676e+002
1.102543e+003,6.149338e+002
1.103507e+003,6.131234e+002
1.104471e+003,6.142969e+002
1.105435e+003,6.163804e+002
1.106400e+003,6.126548e+002
1.107364e+003,5.987758e+002
1.108328e+003,5.801414e+002
1.109292e+003,5.680742e+002
1.110257e+003,5.630433e+002
1.111221e+003,5.629492e+002
1.112185e+003,5.659327e+002
1.113149e+003,5.676155e+002
1.114114e+003,5.650173e+002
1.115078e+003,5.596492e+002
1.116042e+003,5.526036e+002
1.117006e+003,5.422115e+002
1.117970e+003,5.339926e+002
1.118935e+003,5.294723e+002
1.119899e+003,5.252001e+002
1.120863e+003,5.182896e+002
1.121827e+003,5.092623e+002
1.122792e+003,5.010872e+002
1.123756e+003,4.952517e+002
1.124720e+003,4.889719e+002
1.125684e+003,4.822926e+002
1.126649e+003,4.796899e+002
1.127613e+003,4.776453e+002
1.128577e+003,4.734254e+002
1.129541e+003,4.679128e+002
1.130505e+003,4.628153e+002
1.131470e+003,4.574072e+002
1.132434e+003,4.502183e+002
1.133398e+003,4.420757e+002
1.134362e+003,4.350507e+002
1.135327e+003,4.291000e+002
1.136291e+003,4.229866e+002
1.137255e+003,4.148407e+002
1.138219e+003,4.049938e+002
1.139184e+003,3.970824e+002
1.140148e+003,3.954404e+002
1.141112e+003,3.977612e+002
1.142076e+003,3.958188e+002
1.143041e+003,3.932695e+002
1.144005e+003,3.896704e+002
1.144969e+003,3.839441e+002
1.145933e+003,3.774821e+002
1.146897e+003,3.710546e+002
1.147862e+003,3.632280e+002
1.148826e+003,3.561783e+002
1.149790e+003,3.554441e+002
1.150754e+003,3.537522e+002
1.151719e+003,3.441033e+002
1.152683e+003,3.316736e+002
1.153647e+003,3.252286e+002
1.154611e+003,3.277485e+002
1.155576e+003,3.331653e+002
1.156540e+003,3.313062e+002
1.157504e+003,3.187448e+002
1.158468e+003,3.096770e+002
1.159432e+003,3.119525e+002
1.160397e+003,3.112063e+002
1.161361e+003,3.035730e+002
1.162325e+003,2.950100e+002
1.163289e+003,2.905991e+002
1.164254e+003,2.893314e+002
1.165218e+003,2.880768e+002
1.166182e+003,2.858923e+002
1.167146e+003,2.857373e+002
1.168111e+003,2.921733e+002
1.169075e+003,2.995449e+002
1.170039e+003,2.976525e+002
1.171003e+003,2.840239e+002
1.171968e+003,2.670956e+002
1.172932e+003,2.585261e+002
1.173896e+003,2.595313e+002
1.174860e+003,2.609060e+002
1.175824e+003,2.603671e+002
1.176789e+003,2.592148e+002
1.177753e+003,2.582740e+002
1.178717e+003,2.578823e+002
1.179681e+003,2.588462e+002
1.180646e+003,2.603242e+002
1.181610e+003,2.588059e+002
1.182574e+003,2.513776e+002
1.183538e+003,2.429344e+002
1.184503e+003,2.413550e+002
1.185467e+003,2.433997e+002
1.186431e+003,2.422063e+002
1.187395e+003,2.352596e+002
1.188359e+003,2.266288e+002
1.189324e+003,2.224495e+002
1.190288e+003,2.240099e+002
1.191252e+003,2.250986e+002
1.192216e+003,2.223596e+002
1.193181e+003,2.220039e+002
1.194145e+003,2.261256e+002
1.195109e+003,2.276711e+002
1.196073e+003,2.233036e+002
1.197038e+003,2.157092e+002
1.198002e+003,2.087913e+002
1.198966e+003,2.036897e+002
1.199930e+003,2.003384e+002
1.200895e+003,2.000511e+002
1.201859e+003,2.019064e+002
1.202823e+003,2.016980e+002
1.203787e+003,1.983730e+002
1.204751e+003,1.946354e+002
1.205716e+003,1.924108e+002
1.206680e+003,1.916901e+002
1.207644e+003,1.919414e+002
1.208608e+003,1.932499e+002
1.209573e+003,1.925242e+002
1.210537e+003,1.908560e+002
1.211501e+003,1.898489e+002
1.212465e+003,1.896527e+002
1.213430e+003,1.908047e+002
1.214394e+003,1.914860e+002
1.215358e+003,1.894653e+002
1.216322e+003,1.854009e+002
1.217286e+003,1.833760e+002
1.218251e+003,1.846570e+002
1.219215e+003,1.843326e+002
1.220179e+003,1.842621e+002
1.221143e+003,1.846997e+002
1.222108e+003,1.843738e+002
1.223072e+003,1.852372e+002
1.224036e+003,1.878715e+002
1.225000e+003,1.905609e+002
1.225965e+003,1.928040e+002
1.226929e+003,1.948776e+002
1.227893e+003,1.932432e+002
1.228857e+003,1.928528e+002
1.229822e+003,1.948066e+002
1.230786e+003,1.941661e+002
1.231750e+003,1.895535e+002
1.232714e+003,1.850765e+002
1.233678e+003,1.847458e+002
1.234643e+003,1.867625e+002
1.235607e+003,1.860427e+002
1.236571e+003,1.852266e+002
1.237535e+003,1.848578e+002
1.238500e+003,1.793429e+002
1.239464e+003,1.766799e+002
1.240428e+003,1.824731e+002
1.241392e+003,1.906407e+002
1.242357e+003,1.922848e+002
1.243321e+003,1.870822e+002
1.244285e+003,1.843198e+002
1.245249e+003,1.919442e+002
1.246214e+003,2.037844e+002
1.247178e+003,2.062085e+002
1.248142e+003,1.993293e+002
1.249106e+003,1.927699e+002
1.250070e+003,1.917661e+002
1.251035e+003,1.946305e+002
1.251999e+003,1.987461e+002
1.252963e+003,2.040005e+002
1.253927e+003,2.053350e+002
1.254892e+003,2.013870e+002
1.255856e+003,1.973385e+002
1.256820e+003,1.905702e+002
1.257784e+003,1.855308e+002
1.258749e+003,1.861062e+002
1.259713e+003,1.917274e+002
1.260677e+003,2.006097e+002
1.261641e+003,2.113763e+002
1.262605e+003,2.199734e+002
1.263570e+003,2.186617e+002
1.264534e+003,2.077241e+002
1.265498e+003,2.033884e+002
1.266462e+003,2.093452e+002
1.267427e+003,2.149601e+002
1.268391e+003,2.134080e+002
1.269355e+003,2.062206e+002
1.270319e+003,1.971428e+002
1.271284e+003,1.879089e+002
1.272248e+003,1.837830e+002
1.273212e+003,1.919023e+002
1.274176e+003,2.042963e+002
1.275141e+003,2.088312e+002
1.276105e+003,2.061975e+002
1.277069e+003,2.015552e+002
1.278033e+003,1.983180e+002
1.278997e+003,1.982872e+002
1.279962e+003,2.036759e+002
1.280926e+003,2.151006e+002
1.281890e+003,2.241215e+002
1.282854e+003,2.186511e+002
1.283819e+003,2.140474e+002
1.284783e+003,2.176711e+002
1.285747e+003,2.194525e+002
1.286711e+003,2.137046e+002
1.287676e+003,2.069181e+002
1.288640e+003,2.086090e+002
1.289604e+003,2.192490e+002
1.290568e+003,2.283994e+002
1.291532e+003,2.273953e+002
1.292497e+003,2.199952e+002
1.293461e+003,2.152430e+002
1.294425e+003,2.140898e+002
1.295389e+003,2.149446e+002
1.296354e+003,2.165189e+002
1.297318e+003,2.183284e+002
1.298282e+003,2.207880e+002
1.299246e+003,2.231741e+002
1.300211e+003,2.225831e+002
1.301175e+003,2.193765e+002
1.302139e+003,2.196067e+002
1.303103e+003,2.240332e+002
1.304068e+003,2.265973e+002
1.305032e+003,2.242292e+002
1.305996e+003,2.191292e+002
1.306960e+003,2.152123e+002
1.307924e+003,2.150691e+002
1.308889e+003,2.189187e+002
1.309853e+003,2.247090e+002
1.310817e+003,2.279730e+002
1.311781e+003,2.254269e+002
1.312746e+003,2.239675e+002
1.313710e+003,2.241659e+002
1.314674e+003,2.216890e+002
1.315638e+003,2.212148e+002
1.316603e+003,2.258574e+002
1.317567e+003,2.315327e+002
1.318531e+003,2.332880e+002
1.319495e+003,2.335334e+002
1.320459e+003,2.363344e+002
1.321424e+003,2.392692e+002
1.322388e+003,2.406395e+002
1.323352e+003,2.436104e+002
1.324316e+003,2.479634e+002
1.325281e+003,2.493585e+002
1.326245e+003,2.453545e+002
1.327209e+003,2.390433e+002
1.328173e+003,2.341350e+002
1.329138e+003,2.305851e+002
1.330102e+003,2.292616e+002
1.331066e+003,2.335688e+002
1.332030e+003,2.390323e+002
1.332995e+003,2.411379e+002
1.333959e+003,2.422087e+002
1.334923e+003,2.448904e+002
1.335887e+003,2.476803e+002
1.336851e+003,2.483424e+002
1.337816e+003,2.471805e+002
1.338780e+003,2.462281e+002
1.339744e+003,2.455575e+002
1.340708e+003,2.428234e+002
1.341673e+003,2.402155e+002
1.342637e+003,2.386003e+002
1.343601e+003,2.370790e+002
1.344565e+003,2.380525e+002
1.345530e+003,2.411115e+002
1.346494e+003,2.445962e+002
1.347458e+003,2.486487e+002
1.348422e+003,2.548878e+002
1.349386e+003,2.627312e+002
1.350351e+003,2.665292e+002
1.351315e+003,2.623877e+002
1.352279e+003,2.565928e+002
1.353243e+003,2.576968e+002
1.354208e+003,2.644658e+002
1.355172e+003,2.693474e+002
1.356136e+003,2.675192e+002
1.357100e+003,2.623641e+002
1.358065e+003,2.599576e+002
1.359029e+003,2.608568e+002
1.359993e+003,2.600746e+002
1.360957e+003,2.571484e+002
1.361922e+003,2.564819e+002
1.362886e+003,2.595522e+002
1.363850e+003,2.640551e+002
1.364814e+003,2.686935e+002
1.365778e+003,2.711909e+002
1.366743e+003,2.689089e+002
1.367707e+003,2.625381e+002
1.368671e+003,2.575538e+002
1.369635e+003,2.602605e+002
1.370600e+003,2.702708e+002
1.371564e+003,2.775549e+002
1.372528e+003,2.766287e+002
1.373492e+003,2.789546e+002
1.374457e+003,2.874911e+002
1.375421e+003,2.926100e+002
1.376385e+003,2.898856e+002
1.377349e+003,2.841221e+002
1.378313e+003,2.803058e+002
1.379278e+003,2.786663e+002
1.380242e+003,2.783030e+002
1.381206e+003,2.805597e+002
1.382170e+003,2.841168e+002
1.383135e+003,2.833514e+002
1.384099e+003,2.806658e+002
1.385063e+003,2.837480e+002
1.386027e+003,2.912311e+002
1.386992e+003,2.941801e+002
1.387956e+003,2.884585e+002
1.388920e+003,2.804087e+002
1.389884e+003,2.792334e+002
1.390849e+003,2.855375e+002
1.391813e+003,2.909875e+002
1.392777e+003,2.879152e+002
1.393741e+003,2.819506e+002
1.394705e+003,2.822067e+002
1.395670e+003,2.872551e+002
1.396634e+003,2.924540e+002
1.397598e+003,2.944751e+002
1.398562e+003,2.924551e+002
1.399527e+003,2.881156e+002
1.400491e+003,2.850555e+002
1.401455e+003,2.866613e+002
1.402419e+003,2.927856e+002
1.403384e+003,2.974475e+002
1.404348e+003,2.970302e+002
1.405312e+003,2.909033e+002
1.406276e+003,2.817330e+002
1.407240e+003,2.795367e+002
1.408205e+003,2.867413e+002
1.409169e+003,2.961676e+002
1.410133e+003,3.003345e+002
1.411097e+003,2.972631e+002
1.412062e+003,2.893643e+002
1.413026e+003,2.806858e+002
1.413990e+003,2.757803e+002
1.414954e+003,2.773887e+002
1.415919e+003,2.830690e+002
1.416883e+003,2.898245e+002
1.417847e+003,2.962076e+002
1.418811e+003,3.013276e+002
1.419776e+003,3.078026e+002
1.420740e+003,3.131691e+002
1.421704e+003,3.118735e+002
1.422668e+003,3.047179e+002
1.423632e+003,3.007263e+002
1.424597e+003,3.042191e+002
1.425561e+003,3.081849e+002
1.426525e+003,3.030023e+002
1.427489e+003,2.957562e+002
1.428454e+003,2.963375e+002
1.429418e+003,3.049517e+002
1.430382e+003,3.161189e+002
1.431346e+003,3.268218e+002
1.432311e+003,3.323186e+002
1.433275e+003,3.284128e+002
1.434239e+003,3.198236e+002
1.435203e+003,3.175868e+002
1.436167e+003,3.194382e+002
1.437132e+003,3.225017e+002
1.438096e+003,3.274464e+002
1.439060e+003,3.295917e+002
1.440024e+003,3.289674e+002
1.440989e+003,3.281785e+002
1.441953e+003,3.271958e+002
1.442917e+003,3.245680e+002
1.443881e+003,3.206486e+002
1.444846e+003,3.179293e+002
1.445810e+003,3.183911e+002
1.446774e+003,3.217177e+002
1.447738e+003,3.265212e+002
1.448703e+003,3.278740e+002
1.449667e+003,3.247844e+002
1.450631e+003,3.217831e+002
1.451595e+003,3.204087e+002
1.452559e+003,3.225011e+002
1.453524e+003,3.305172e+002
1.454488e+003,3.415400e+002
1.455452e+003,3.486279e+002
1.456416e+003,3.483446e+002
1.457381e+003,3.442384e+002
1.458345e+003,3.408578e+002
1.459309e+003,3.375273e+002
1.460273e+003,3.357291e+002
1.461238e+003,3.409036e+002
1.462202e+003,3.452537e+002
1.463166e+003,3.452234e+002
1.464130e+003,3.456423e+002
1.465094e+003,3.462125e+002
1.466059e+003,3.446089e+002
1.467023e+003,3.421476e+002
1.467987e+003,3.408505e+002
1.468951e+003,3.383776e+002
1.469916e+003,3.334933e+002
1.470880e+003,3.331340e+002
1.471844e+003,3.427225e+002
1.472808e+003,3.534163e+002
1.473773e+003,3.565607e+002
1.474737e+003,3.542959e+002
1.475701e+003,3.511628e+002
1.476665e+003,3.485050e+002
1.477630e+003,3.490330e+002
1.478594e+003,3.551771e+002
1.479558e+003,3.631646e+002
1.480522e+003,3.650444e+002
1.481486e+003,3.606367e+002
1.482451e+003,3.564888e+002
1.483415e+003,3.546345e+002
1.484379e+003,3.545709e+002
1.485343e+003,3.576493e+002
1.486308e+003,3.624742e+002
1.487272e+003,3.648661e+002
1.488236e+003,3.638290e+002
1.489200e+003,3.627729e+002
1.490165e+003,3.634438e+002
1.491129e+003,3.647235e+002
1.492093e+003,3.675477e+002
1.493057e+003,3.738738e+002
1.494021e+003,3.756963e+002
1.494986e+003,3.681428e+002
1.495950e+003,3.663075e+002
1.496914e+003,3.782565e+002
1.497878e+003,3.887620e+002
1.498843e+003,3.855812e+002
1.499807e+003,3.759592e+002
1.500771e+003,3.735865e+002
1.501735e+003,3.816025e+002
1.502700e+003,3.915463e+002
1.503664e+003,3.953746e+002
1.504628e+003,3.932313e+002
1.505592e+003,3.879355e+002
1.506557e+003,3.796437e+002
1.507521e+003,3.789752e+002
1.508485e+003,3.893738e+002
1.509449e+003,3.986266e+002
1.510413e+003,4.045840e+002
1.511378e+003,4.068589e+002
1.512342e+003,4.059860e+002
1.513306e+003,4.035557e+002
1.514270e+003,4.002355e+002
1.515235e+003,3.960740e+002
1.516199e+003,3.920658e+002
1.517163e+003,3.898954e+002
1.518127e+003,3.905746e+002
1.519092e+003,3.946298e+002
1.520056e+003,4.020499e+002
1.521020e+003,4.064536e+002
1.521984e+003,4.088129e+002
1.522948e+003,4.067847e+002
1.523913e+003,3.969270e+002
1.524877e+003,3.892522e+002
1.525841e+003,3.928324e+002
1.526805e+003,4.036669e+002
1.527770e+003,4.106453e+002
1.528734e+003,4.088855e+002
1.529698e+003,4.035289e+002
1.530662e+003,4.015424e+002
1.531627e+003,4.029606e+002
1.532591e+003,4.039231e+002
1.533555e+003,4.046230e+002
1.534519e+003,4.048097e+002
1.535484e+003,4.039611e+002
1.536448e+003,4.048014e+002
1.537412e+003,4.080889e+002
1.538376e+003,4.109056e+002
1.539340e+003,4.116799e+002
1.540305e+003,4.119131e+002
1.541269e+003,4.125354e+002
1.542233e+003,4.120228e+002
1.543197e+003,4.101616e+002
1.544162e+003,4.084854e+002
1.545126e+003,4.051949e+002
1.546090e+003,3.972202e+002
1.547054e+003,3.911265e+002
1.548019e+003,3.943597e+002
1.548983e+003,4.028282e+002
1.549947e+003,4.088700e+002
1.550911e+003,4.121958e+002
1.551875e+003,4.120739e+002
1.552840e+003,4.069929e+002
1.553804e+003,4.017288e+002
1.554768e+003,4.046067e+002
1.555732e+003,4.148977e+002
1.556697e+003,4.227773e+002
1.557661e+003,4.238534e+002
1.558625e+003,4.214265e+002
1.559589e+003,4.184613e+002
1.560554e+003,4.156251e+002
1.561518e+003,4.139191e+002
1.562482e+003,4.127239e+002
1.563446e+003,4.126682e+002
1.564411e+003,4.171686e+002
1.565375e+003,4.229508e+002
1.566339e+003,4.249961e+002
1.567303e+003,4.234138e+002
1.568267e+003,4.194785e+002
1.569232e+003,4.127452e+002
1.570196e+003,4.083783e+002
1.571160e+003,4.099287e+002
1.572124e+003,4.120879e+002
1.573089e+003,4.114248e+002
1.574053e+003,4.112191e+002
1.575017e+003,4.125608e+002
1.575981e+003,4.145328e+002
1.576946e+003,4.188583e+002
1.577910e+003,4.259459e+002
1.578874e+003,4.307800e+002
1.579838e+003,4.315233e+002
1.580802e+003,4.325883e+002
1.581767e+003,4.360107e+002
1.582731e+003,4.383597e+002
1.583695e+003,4.391975e+002
1.584659e+003,4.393997e+002
1.585624e+003,4.365321e+002
1.586588e+003,4.310496e+002
1.587552e+003,4.276685e+002
1.588516e+003,4.270381e+002
1.589481e+003,4.283190e+002
1.590445e+003,4.330870e+002
1.591409e+003,4.415968e+002
1.592373e+003,4.461891e+002
1.593338e+003,4.377889e+002
1.594302e+003,4.239109e+002
1.595266e+003,4.222990e+002
1.596230e+003,4.331492e+002
1.597194e+003,4.416611e+002
1.598159e+003,4.423555e+002
1.599123e+003,4.418087e+002
1.600087e+003,4.443693e+002
1.601051e+003,4.487271e+002
1.602016e+003,4.546338e+002
1.602980e+003,4.588754e+002
1.603944e+003,4.572145e+002
1.604908e+003,4.511937e+002
1.605873e+003,4.464567e+002
1.606837e+003,4.457327e+002
1.607801e+003,4.487098e+002
1.608765e+003,4.532332e+002
1.609729e+003,4.561918e+002
1.610694e+003,4.570955e+002
1.611658e+003,4.579674e+002
1.612622e+003,4.588555e+002
1.613586e+003,4.630134e+002
1.614551e+003,4.683392e+002
1.615515e+003,4.681295e+002
1.616479e+003,4.637565e+002
1.617443e+003,4.597029e+002
1.618408e+003,4.569857e+002
1.619372e+003,4.549534e+002
1.620336e+003,4.543898e+002
1.621300e+003,4.556465e+002
1.622265e+003,4.584265e+002
1.623229e+003,4.613688e+002
1.624193e+003,4.613611e+002
1.625157e+003,4.575785e+002
1.626121e+003,4.556855e+002
1.627086e+003,4.587446e+002
1.628050e+003,4.619258e+002
1.629014e+003,4.585386e+002
1.629978e+003,4.541887e+002
1.630943e+003,4.578068e+002
1.631907e+003,4.658809e+002
1.632871e+003,4.696500e+002
1.633835e+003,4.685886e+002
1.634800e+003,4.661615e+002
1.635764e+003,4.627002e+002
1.636728e+003,4.618511e+002
1.637692e+003,4.680238e+002
1.638656e+003,4.772889e+002
1.639621e+003,4.820398e+002
1.640585e+003,4.813628e+002
1.641549e+003,4.774944e+002
1.642513e+003,4.747207e+002
1.643478e+003,4.745913e+002
1.644442e+003,4.722076e+002
1.645406e+003,4.703536e+002
1.646370e+003,4.760333e+002
1.647335e+003,4.868795e+002
1.648299e+003,4.923813e+002
1.649263e+003,4.887317e+002
1.650227e+003,4.830236e+002
1.651192e+003,4.808699e+002
1.652156e+003,4.811733e+002
1.653120e+003,4.823346e+002
1.654084e+003,4.845031e+002
1.655048e+003,4.860006e+002
1.656013e+003,4.859170e+002
1.656977e+003,4.858442e+002
1.657941e+003,4.842675e+002
1.658905e+003,4.812496e+002
1.659870e+003,4.816908e+002
1.660834e+003,4.863829e+002
1.661798e+003,4.914934e+002
1.662762e+003,4.949227e+002
1.663727e+003,4.960750e+002
1.664691e+003,4.951405e+002
1.665655e+003,4.917131e+002
1.666619e+003,4.831427e+002
1.667583e+003,4.746787e+002
1.668548e+003,4.755554e+002
1.669512e+003,4.834120e+002
1.670476e+003,4.885519e+002
1.671440e+003,4.906599e+002
1.672405e+003,4.920339e+002
1.673369e+003,4.908314e+002
1.674333e+003,4.883962e+002
1.675297e+003,4.891276e+002
1.676262e+003,4.923047e+002
1.677226e+003,4.958201e+002
1.678190e+003,5.004064e+002
1.679154e+003,5.023010e+002
1.680119e+003,4.982802e+002
1.681083e+003,4.923174e+002
1.682047e+003,4.872495e+002
1.683011e+003,4.840190e+002
1.683975e+003,4.852109e+002
1.684940e+003,4.910037e+002
1.685904e+003,4.963302e+002
1.686868e+003,4.982123e+002
1.687832e+003,4.989435e+002
1.688797e+003,4.989978e+002
1.689761e+003,4.970039e+002
1.690725e+003,4.973916e+002
1.691689e+003,5.033418e+002
1.692654e+003,5.041825e+002
1.693618e+003,4.985150e+002
1.694582e+003,4.970432e+002
1.695546e+003,4.995581e+002
1.696510e+003,5.001033e+002
1.697475e+003,4.971812e+002
1.698439e+003,4.940571e+002
1.699403e+003,4.936720e+002
1.700367e+003,4.966740e+002
1.701332e+003,5.033131e+002
1.702296e+003,5.130382e+002
1.703260e+003,5.211781e+002
1.704224e+003,5.213562e+002
1.705189e+003,5.147814e+002
1.706153e+003,5.129182e+002
1.707117e+003,5.164775e+002
1.708081e+003,5.150494e+002
1.709046e+003,5.162404e+002
1.710010e+003,5.214254e+002
1.710974e+003,5.251196e+002
1.711938e+003,5.264858e+002
1.712902e+003,5.231068e+002
1.713867e+003,5.169611e+002
1.714831e+003,5.154193e+002
1.715795e+003,5.204415e+002
1.716759e+003,5.263151e+002
1.717724e+003,5.287849e+002
1.718688e+003,5.294164e+002
1.719652e+003,5.298787e+002
1.720616e+003,5.290842e+002
1.721581e+003,5.281022e+002
1.722545e+003,5.283672e+002
1.723509e+003,5.267097e+002
1.724473e+003,5.217152e+002
1.725438e+003,5.197506e+002
1.726402e+003,5.219016e+002
1.727366e+003,5.235574e+002
1.728330e+003,5.225266e+002
1.729294e+003,5.222130e+002
1.730259e+003,5.282477e+002
1.731223e+003,5.392759e+002
1.732187e+003,5.467678e+002
1.733151e+003,5.457197e+002
1.734116e+003,5.406643e+002
1.735080e+003,5.389681e+002
1.736044e+003,5.405430e+002
1.737008e+003,5.384370e+002
1.737973e+003,5.315552e+002
1.738937e+003,5.290468e+002
1.739901e+003,5.331360e+002
1.740865e+003,5.371193e+002
1.741829e+003,5.400604e+002
1.742794e+003,5.411572e+002
1.743758e+003,5.380710e+002
1.744722e+003,5.337655e+002
1.745686e+003,5.306888e+002
1.746651e+003,5.290576e+002
1.747615e+003,5.327723e+002
1.748579e+003,5.442629e+002
1.749543e+003,5.526178e+002
1.750508e+003,5.500555e+002
1.751472e+003,5.456398e+002
1.752436e+003,5.482220e+002
1.753400e+003,5.535537e+002
1.754365e+003,5.539044e+002
1.755329e+003,5.495094e+002
1.756293e+003,5.462037e+002
1.757257e+003,5.467355e+002
1.758221e+003,5.487719e+002
1.759186e+003,5.508796e+002
1.760150e+003,5.544966e+002
1.761114e+003,5.571238e+002
1.762078e+003,5.536088e+002
1.763043e+003,5.522476e+002
1.764007e+003,5.556772e+002
1.764971e+003,5.541115e+002
1.765935e+003,5.493838e+002
1.766900e+003,5.476117e+002
1.767864e+003,5.511580e+002
1.768828e+003,5.561909e+002
1.769792e+003,5.578636e+002
1.770756e+003,5.575498e+002
1.771721e+003,5.587848e+002
1.772685e+003,5.609763e+002
1.773649e+003,5.625804e+002
1.774613e+003,5.655862e+002
1.775578e+003,5.695359e+002
1.776542e+003,5.665205e+002
1.777506e+003,5.555072e+002
1.778470e+003,5.523816e+002
1.779435e+003,5.598519e+002
1.780399e+003,5.618208e+002
1.781363e+003,5.566609e+002
1.782327e+003,5.528284e+002
1.783292e+003,5.479646e+002
1.784256e+003,5.422589e+002
1.785220e+003,5.406393e+002
1.786184e+003,5.429937e+002
1.787148e+003,5.442394e+002
1.788113e+003,5.424966e+002
1.789077e+003,5.417317e+002
1.790041e+003,5.442908e+002
1.791005e+003,5.457982e+002
1.791970e+003,5.425537e+002
1.792934e+003,5.389720e+002
1.793898e+003,5.411483e+002
1.794862e+003,5.478151e+002
1.795827e+003,5.539854e+002
1.796791e+003,5.579623e+002
1.797755e+003,5.596025e+002
1.798719e+003,5.595367e+002
1.799683e+003,5.587460e+002
1.800648e+003,5.552548e+002
1.801612e+003,5.501288e+002
1.802576e+003,5.533109e+002
1.803540e+003,5.645344e+002
1.804505e+003,5.656993e+002
1.805469e+003,5.542601e+002
1.806433e+003,5.488068e+002
1.807397e+003,5.517108e+002
1.808362e+003,5.565990e+002
1.809326e+003,5.621753e+002
1.810290e+003,5.664918e+002
1.811254e+003,5.668179e+002
1.812219e+003,5.645225e+002
1.813183e+003,5.620051e+002
1.814147e+003,5.586100e+002
1.815111e+003,5.540459e+002
1.816075e+003,5.517267e+002
1.817040e+003,5.540511e+002
1.818004e+003,5.590298e+002
1.818968e+003,5.664009e+002
1.819932e+003,5.742144e+002
1.820897e+003,5.762871e+002
1.821861e+003,5.757831e+002
1.822825e+003,5.770623e+002
1.823789e+003,5.743735e+002
1.824754e+003,5.669001e+002
1.825718e+003,5.635850e+002
1.826682e+003,5.666475e+002
1.827646e+003,5.713717e+002
1.828610e+003,5.746711e+002
1.829575e+003,5.769430e+002
1.830539e+003,5.779650e+002
1.831503e+003,5.769174e+002
1.832467e+003,5.765300e+002
1.833432e+003,5.801246e+002
1.834396e+003,5.832283e+002
1.835360e+003,5.814326e+002
1.836324e+003,5.794152e+002
1.837289e+003,5.809904e+002
1.838253e+003,5.824728e+002
1.839217e+003,5.813956e+002
1.840181e+003,5.787041e+002
1.841146e+003,5.761923e+002
1.842110e+003,5.763263e+002
1.843074e+003,5.801293e+002
1.844038e+003,5.860416e+002
1.845002e+003,5.930533e+002
1.845967e+003,5.989875e+002
1.846931e+003,6.060917e+002
1.847895e+003,6.099856e+002
1.848859e+003,6.007542e+002
1.849824e+003,5.896528e+002
1.850788e+003,5.857118e+002
1.851752e+003,5.838582e+002
1.852716e+003,5.817513e+002
1.853681e+003,5.823209e+002
1.854645e+003,5.865769e+002
1.855609e+003,5.920706e+002
1.856573e+003,5.951877e+002
1.857537e+003,5.931096e+002
1.858502e+003,5.871979e+002
1.859466e+003,5.829546e+002
1.860430e+003,5.837214e+002
1.861394e+003,5.883872e+002
1.862359e+003,5.933542e+002
1.863323e+003,5.923308e+002
1.864287e+003,5.840756e+002
1.865251e+003,5.776680e+002
1.866216e+003,5.791805e+002
1.867180e+003,5.858900e+002
1.868144e+003,5.937156e+002
1.869108e+003,5.976133e+002
1.870073e+003,5.941527e+002
1.871037e+003,5.866548e+002
1.872001e+003,5.827371e+002
1.872965e+003,5.840428e+002
1.873929e+003,5.870736e+002
1.874894e+003,5.886039e+002
1.875858e+003,5.874598e+002
1.876822e+003,5.840291e+002
1.877786e+003,5.827931e+002
1.878751e+003,5.891361e+002
1.879715e+003,5.978317e+002
1.880679e+003,5.995101e+002
1.881643e+003,5.947152e+002
1.882608e+003,5.904087e+002
1.883572e+003,5.894669e+002
1.884536e+003,5.905264e+002
1.885500e+003,5.918589e+002
1.886464e+003,5.911952e+002
1.887429e+003,5.869635e+002
1.888393e+003,5.832109e+002
1.889357e+003,5.882516e+002
1.890321e+003,6.013524e+002
1.891286e+003,6.055352e+002
1.892250e+003,5.941943e+002
1.893214e+003,5.850171e+002
1.894178e+003,5.909297e+002
1.895143e+003,6.004208e+002
1.896107e+003,5.982712e+002
1.897071e+003,5.908364e+002
1.898035e+003,5.931541e+002
1.899000e+003,5.995488e+002
1.899964e+003,5.974883e+002
1.900928e+003,5.945143e+002
1.901892e+003,5.944641e+002
1.902856e+003,5.886183e+002
1.903821e+003,5.857057e+002
1.904785e+003,5.926240e+002
1.905749e+003,5.978533e+002
1.906713e+003,5.925480e+002
1.907678e+003,5.853953e+002
1.908642e+003,5.890474e+002
1.909606e+003,6.012535e+002
1.910570e+003,6.094879e+002
1.911535e+003,6.087262e+002
1.912499e+003,6.041149e+002
1.913463e+003,5.974722e+002
1.914427e+003,5.880160e+002
1.915391e+003,5.838033e+002
1.916356e+003,5.876215e+002
1.917320e+003,5.882740e+002
1.918284e+003,5.861110e+002
1.919248e+003,5.874641e+002
1.920213e+003,5.881454e+002
1.921177e+003,5.899929e+002
1.922141e+003,5.986160e+002
1.923105e+003,6.082072e+002
1.924070e+003,6.118070e+002
1.925034e+003,6.107209e+002
1.925998e+003,6.085350e+002
1.926962e+003,6.051875e+002
1.927927e+003,6.011628e+002
1.928891e+003,5.958484e+002
1.929855e+003,5.938127e+002
1.930819e+003,5.953967e+002
1.931783e+003,5.976227e+002
1.932748e+003,6.044360e+002
1.933712e+003,6.104791e+002
1.934676e+003,6.066914e+002
1.935640e+003,5.984983e+002
1.936605e+003,5.960032e+002
1.937569e+003,5.982631e+002
1.938533e+003,5.982607e+002
1.939497e+003,5.965243e+002
1.940462e+003,5.990878e+002
1.941426e+003,6.072610e+002
1.942390e+003,6.152104e+002
1.943354e+003,6.159149e+002
1.944318e+003,6.082754e+002
1.945283e+003,5.976793e+002
1.946247e+003,5.894237e+002
1.947211e+003,5.855383e+002
1.948175e+003,5.862123e+002
1.949140e+003,5.908915e+002
1.950104e+003,5.958805e+002
1.951068e+003,5.997101e+002
1.952032e+003,6.051864e+002
1.952997e+003,6.118815e+002
1.953961e+003,6.141516e+002
1.954925e+003,6.113431e+002
1.955889e+003,6.066855e+002
1.956854e+003,5.980016e+002
1.957818e+003,5.935669e+002
1.958782e+003,5.981338e+002
1.959746e+003,6.050697e+002
1.960710e+003,6.050719e+002
1.961675e+003,6.032699e+002
1.962639e+003,6.111080e+002
1.963603e+003,6.223049e+002
1.964567e+003,6.224828e+002
1.965532e+003,6.133021e+002
1.966496e+003,6.112383e+002
1.967460e+003,6.219863e+002
1.968424e+003,6.282317e+002
1.969389e+003,6.152526e+002
1.970353e+003,6.004106e+002
1.971317e+003,6.005118e+002
1.972281e+003,6.059559e+002
1.973245e+003,6.029614e+002
1.974210e+003,5.969562e+002
1.975174e+003,6.013580e+002
1.976138e+003,6.148024e+002
1.977102e+003,6.227192e+002
1.978067e+003,6.187466e+002
1.979031e+003,6.135764e+002
1.979995e+003,6.182588e+002
1.980959e+003,6.251735e+002
1.981924e+003,6.190697e+002
1.982888e+003,6.042354e+002
1.983852e+003,5.982129e+002
1.984816e+003,5.994521e+002
1.985781e+003,6.044878e+002
1.986745e+003,6.176390e+002
1.987709e+003,6.272971e+002
1.988673e+003,6.248805e+002
1.989637e+003,6.182625e+002
1.990602e+003,6.117134e+002
1.991566e+003,6.051178e+002
1.992530e+003,6.028254e+002
1.993494e+003,6.074768e+002
1.994459e+003,6.120319e+002
1.995423e+003,6.126847e+002
1.996387e+003,6.142794e+002
1.997351e+003,6.181843e+002
1.998316e+003,6.170182e+002
1.999280e+003,6.090466e+002
2.000244e+003,6.045298e+002
2.001208e+003,6.094376e+002
2.002172e+003,6.175914e+002
2.003137e+003,6.212823e+002
2.004101e+003,6.204957e+002
2.005065e+003,6.203550e+002
2.006029e+003,6.225453e+002
2.006994e+003,6.228977e+002
2.007958e+003,6.167914e+002
2.008922e+003,6.096461e+002
2.009886e+003,6.096906e+002
2.010851e+003,6.157024e+002
2.011815e+003,6.265217e+002
2.012779e+003,6.356010e+002
2.013743e+003,6.321648e+002
2.014708e+003,6.199624e+002
2.015672e+003,6.106475e+002
2.016636e+003,6.076848e+002
2.017600e+003,6.094042e+002
2.018564e+003,6.135042e+002
2.019529e+003,6.163840e+002
2.020493e+003,6.166072e+002
2.021457e+003,6.167665e+002
2.022421e+003,6.173176e+002
2.023386e+003,6.165797e+002
2.024350e+003,6.153510e+002
2.025314e+003,6.142322e+002
2.026278e+003,6.164497e+002
2.027243e+003,6.237687e+002
2.028207e+003,6.294257e+002
2.029171e+003,6.299017e+002
2.030135e+003,6.280619e+002
2.031099e+003,6.252363e+002
2.032064e+003,6.220746e+002
2.033028e+003,6.190680e+002
2.033992e+003,6.134948e+002
2.034956e+003,6.087250e+002
2.035921e+003,6.136309e+002
2.036885e+003,6.166838e+002
2.037849e+003,6.140697e+002
2.038813e+003,6.185867e+002
2.039778e+003,6.237339e+002
2.040742e+003,6.234969e+002
2.041706e+003,6.223385e+002
2.042670e+003,6.221317e+002
2.043635e+003,6.240062e+002
2.044599e+003,6.256323e+002
2.045563e+003,6.227062e+002
2.046527e+003,6.168296e+002
2.047491e+003,6.145332e+002
2.048456e+003,6.187728e+002
2.049420e+003,6.250131e+002
2.050384e+003,6.262235e+002
2.051348e+003,6.254774e+002
2.052313e+003,6.302601e+002
2.053277e+003,6.342329e+002
2.054241e+003,6.308451e+002
2.055205e+003,6.266266e+002
2.056170e+003,6.260858e+002
2.057134e+003,6.256173e+002
2.058098e+003,6.229050e+002
2.059062e+003,6.206313e+002
2.060027e+003,6.216417e+002
2.060991e+003,6.261593e+002
2.061955e+003,6.298125e+002
2.062919e+003,6.245233e+002
2.063884e+003,6.178361e+002
2.064848e+003,6.266941e+002
2.065812e+003,6.435800e+002
2.066776e+003,6.469576e+002
2.067740e+003,6.378870e+002
2.068705e+003,6.317683e+002
2.069669e+003,6.317620e+002
2.070633e+003,6.301704e+002
2.071597e+003,6.231434e+002
2.072562e+003,6.160945e+002
2.073526e+003,6.171958e+002
2.074490e+003,6.247117e+002
2.075454e+003,6.270847e+002
2.076418e+003,6.233197e+002
2.077383e+003,6.214696e+002
2.078347e+003,6.178364e+002
2.079311e+003,6.083511e+002
2.080275e+003,6.005751e+002
2.081240e+003,6.018257e+002
2.082204e+003,6.091776e+002
2.083168e+003,6.193961e+002
2.084132e+003,6.306259e+002
2.085096e+003,6.361318e+002
2.086061e+003,6.318175e+002
2.087025e+003,6.229481e+002
2.087989e+003,6.169091e+002
2.088953e+003,6.136512e+002
2.089918e+003,6.107903e+002
2.090882e+003,6.074528e+002
2.091846e+003,6.072964e+002
2.092810e+003,6.133368e+002
2.093775e+003,6.155782e+002
2.094739e+003,6.062810e+002
2.095703e+003,5.970736e+002
2.096667e+003,5.971093e+002
2.097632e+003,6.013214e+002
2.098596e+003,6.052843e+002
2.099560e+003,6.108130e+002
2.100524e+003,6.134158e+002
2.101489e+003,6.067159e+002
2.102453e+003,6.040056e+002
2.103417e+003,6.135789e+002
2.104381e+003,6.191005e+002
2.105345e+003,6.182401e+002
2.106310e+003,6.171908e+002
2.107274e+003,6.177426e+002
2.108238e+003,6.197458e+002
2.109202e+003,6.216761e+002
2.110167e+003,6.225417e+002
2.111131e+003,6.201294e+002
2.112095e+003,6.135304e+002
2.113059e+003,6.086370e+002
2.114023e+003,6.139347e+002
2.114988e+003,6.216335e+002
2.115952e+003,6.176271e+002
2.116916e+003,6.129235e+002
2.117880e+003,6.156504e+002
2.118845e+003,6.168387e+002
2.119809e+003,6.174969e+002
2.120773e+003,6.208551e+002
2.121737e+003,6.215447e+002
2.122702e+003,6.205834e+002
2.123666e+003,6.249092e+002
2.124630e+003,6.319385e+002
2.125594e+003,6.324875e+002
2.126559e+003,6.253517e+002
2.127523e+003,6.151294e+002
2.128487e+003,6.024021e+002
2.129451e+003,5.948047e+002
2.130416e+003,5.936541e+002
2.131380e+003,5.960504e+002
2.132344e+003,6.044846e+002
2.133308e+003,6.129099e+002
2.134272e+003,6.110583e+002
2.135237e+003,6.023279e+002
2.136201e+003,5.995472e+002
2.137165e+003,6.037639e+002
2.138129e+003,6.030454e+002
2.139094e+003,5.940667e+002
2.140058e+003,5.894027e+002
2.141022e+003,5.944067e+002
2.141986e+003,6.010936e+002
2.142950e+003,6.089681e+002
2.143915e+003,6.145477e+002
2.144879e+003,6.101697e+002
2.145843e+003,6.002067e+002
2.146807e+003,5.934878e+002
2.147772e+003,5.923691e+002
2.148736e+003,5.922283e+002
2.149700e+003,5.908207e+002
2.150664e+003,5.944165e+002
2.151629e+003,6.058848e+002
2.152593e+003,6.121836e+002
2.153557e+003,6.030715e+002
2.154521e+003,5.917926e+002
2.155486e+003,5.882310e+002
2.156450e+003,5.886819e+002
2.157414e+003,5.933906e+002
2.158378e+003,6.003158e+002
2.159343e+003,6.047822e+002
2.160307e+003,6.068380e+002
2.161271e+003,6.069816e+002
2.162235e+003,6.050978e+002
2.163199e+003,6.024463e+002
2.164164e+003,6.003961e+002
2.165128e+003,5.997881e+002
2.166092e+003,6.018943e+002
2.167056e+003,6.054238e+002
2.168021e+003,6.049117e+002
2.168985e+003,6.001780e+002
2.169949e+003,5.966362e+002
2.170913e+003,5.948867e+002
2.171877e+003,5.929722e+002
2.172842e+003,5.931317e+002
2.173806e+003,5.993035e+002
2.174770e+003,6.095728e+002
2.175734e+003,6.174829e+002
2.176699e+003,6.195842e+002
2.177663e+003,6.160663e+002
2.178627e+003,6.078022e+002
2.179591e+003,5.985820e+002
2.180556e+003,5.907014e+002
2.181520e+003,5.827633e+002
2.182484e+003,5.750073e+002
2.183448e+003,5.706376e+002
2.184413e+003,5.764303e+002
2.185377e+003,5.889437e+002
2.186341e+003,5.935095e+002
2.187305e+003,5.881010e+002
2.188270e+003,5.851752e+002
2.189234e+003,5.913895e+002
2.190198e+003,6.014935e+002
2.191162e+003,6.083689e+002
2.192126e+003,6.077611e+002
2.193091e+003,5.963429e+002
2.194055e+003,5.811361e+002
2.195019e+003,5.753195e+002
2.195983e+003,5.781111e+002
2.196948e+003,5.829767e+002
2.197912e+003,5.882218e+002
2.198876e+003,5.917990e+002
2.199840e+003,5.924619e+002
2.200804e+003,5.916377e+002
2.201769e+003,5.899846e+002
2.202733e+003,5.883640e+002
2.203697e+003,5.892622e+002
2.204661e+003,5.918385e+002
2.205626e+003,5.935867e+002
2.206590e+003,5.947094e+002
2.207554e+003,5.908651e+002
2.208518e+003,5.831613e+002
2.209483e+003,5.834478e+002
2.210447e+003,5.912416e+002
2.211411e+003,5.976984e+002
2.212375e+003,6.012177e+002
2.213340e+003,6.036569e+002
2.214304e+003,6.057822e+002
2.215268e+003,6.053004e+002
2.216232e+003,5.988658e+002
2.217197e+003,5.884757e+002
2.218161e+003,5.789630e+002
2.219125e+003,5.720729e+002
2.220089e+003,5.708896e+002
2.221053e+003,5.758909e+002
2.222018e+003,5.812847e+002
2.222982e+003,5.830071e+002
2.223946e+003,5.828954e+002
2.224910e+003,5.844352e+002
2.225875e+003,5.877340e+002
2.226839e+003,5.911339e+002
2.227803e+003,5.935269e+002
2.228767e+003,5.935341e+002
2.229731e+003,5.896086e+002
2.230696e+003,5.809812e+002
2.231660e+003,5.717919e+002
2.232624e+003,5.714469e+002
2.233588e+003,5.761881e+002
2.234553e+003,5.723533e+002
2.235517e+003,5.649861e+002
2.236481e+003,5.646674e+002
2.237445e+003,5.685344e+002
2.238410e+003,5.727960e+002
2.239374e+003,5.787626e+002
2.240338e+003,5.880621e+002
2.241302e+003,5.999092e+002
2.242267e+003,6.093424e+002
2.243231e+003,6.131038e+002
2.244195e+003,6.150671e+002
2.245159e+003,6.187761e+002
2.246124e+003,6.200128e+002
2.247088e+003,6.143821e+002
2.248052e+003,6.032042e+002
2.249016e+003,5.867103e+002
2.249980e+003,5.715161e+002
2.250945e+003,5.691140e+002
2.251909e+003,5.771273e+002
2.252873e+003,5.821080e+002
2.253837e+003,5.794240e+002
2.254802e+003,5.761172e+002
2.255766e+003,5.773364e+002
2.256730e+003,5.797888e+002
2.257694e+003,5.787169e+002
2.258658e+003,5.772021e+002
2.259623e+003,5.782610e+002
2.260587e+003,5.799335e+002
2.261551e+003,5.820225e+002
2.262515e+003,5.834502e+002
2.263480e+003,5.827083e+002
2.264444e+003,5.821505e+002
2.265408e+003,5.838145e+002
2.266372e+003,5.851034e+002
2.267337e+003,5.823531e+002
2.268301e+003,5.755662e+002
2.269265e+003,5.707828e+002
2.270229e+003,5.788835e+002
2.271194e+003,5.896195e+002
2.272158e+003,5.860272e+002
2.273122e+003,5.781556e+002
2.274086e+003,5.743308e+002
2.275051e+003,5.731023e+002
2.276015e+003,5.777194e+002
2.276979e+003,5.857250e+002
2.277943e+003,5.928672e+002
2.278907e+003,5.958795e+002
2.279872e+003,5.872998e+002
2.280836e+003,5.657891e+002
2.281800e+003,5.538389e+002
2.282764e+003,5.631142e+002
2.283729e+003,5.714207e+002
2.284693e+003,5.767701e+002
2.285657e+003,5.840978e+002
2.286621e+003,5.878070e+002
2.287585e+003,5.873804e+002
2.288550e+003,5.872990e+002
2.289514e+003,5.882189e+002
2.290478e+003,5.903801e+002
2.291442e+003,5.928827e+002
2.292407e+003,5.897092e+002
2.293371e+003,5.815157e+002
2.294335e+003,5.833896e+002
2.295299e+003,5.992800e+002
2.296264e+003,6.011854e+002
2.297228e+003,5.818015e+002
2.298192e+003,5.710648e+002
2.299156e+003,5.769589e+002
2.300121e+003,5.862494e+002
2.301085e+003,5.923992e+002
2.302049e+003,5.928905e+002
2.303013e+003,5.869060e+002
2.303978e+003,5.821099e+002
2.304942e+003,5.855168e+002
2.305906e+003,5.931591e+002
2.306870e+003,5.989590e+002
2.307834e+003,6.025736e+002
2.308799e+003,5.993026e+002
2.309763e+003,5.904256e+002
2.310727e+003,5.898977e+002
2.311691e+003,5.961920e+002
2.312656e+003,5.973329e+002
2.313620e+003,5.912845e+002
2.314584e+003,5.858658e+002
2.315548e+003,5.843953e+002
2.316512e+003,5.815482e+002
2.317477e+003,5.755145e+002
2.318441e+003,5.750414e+002
2.319405e+003,5.874004e+002
2.320369e+003,6.047841e+002
2.321334e+003,6.121780e+002
2.322298e+003,6.084219e+002
2.323262e+003,6.005085e+002
2.324226e+003,5.955592e+002
2.325191e+003,6.017585e+002
2.326155e+003,6.142694e+002
2.327119e+003,6.210990e+002
2.328083e+003,6.195467e+002
2.329048e+003,6.147625e+002
2.330012e+003,6.122772e+002
2.330976e+003,6.155284e+002
2.331940e+003,6.222528e+002
2.332905e+003,6.247389e+002
2.333869e+003,6.195774e+002
2.334833e+003,6.144413e+002
2.335797e+003,6.173087e+002
2.336761e+003,6.234406e+002
2.337726e+003,6.219219e+002
2.338690e+003,6.149311e+002
2.339654e+003,6.112932e+002
2.340618e+003,6.126685e+002
2.341583e+003,6.184907e+002
2.342547e+003,6.271858e+002
2.343511e+003,6.313490e+002
2.344475e+003,6.267845e+002
2.345439e+003,6.221464e+002
2.346404e+003,6.199279e+002
2.347368e+003,6.171588e+002
2.348332e+003,6.166044e+002
2.349296e+003,6.189617e+002
2.350261e+003,6.265850e+002
2.351225e+003,6.357717e+002
2.352189e+003,6.384410e+002
2.353153e+003,6.389411e+002
2.354118e+003,6.457742e+002
2.355082e+003,6.535286e+002
2.356046e+003,6.522160e+002
2.357010e+003,6.462994e+002
2.357975e+003,6.489698e+002
2.358939e+003,6.623325e+002
2.359903e+003,6.706306e+002
2.360867e+003,6.659965e+002
2.361832e+003,6.601045e+002
2.362796e+003,6.619626e+002
2.363760e+003,6.601312e+002
2.364724e+003,6.502737e+002
2.365688e+003,6.496448e+002
2.366653e+003,6.640074e+002
2.367617e+003,6.773198e+002
2.368581e+003,6.771254e+002
2.369545e+003,6.693668e+002
2.370510e+003,6.639036e+002
2.371474e+003,6.621918e+002
2.372438e+003,6.641743e+002
2.373402e+003,6.678716e+002
2.374366e+003,6.699655e+002
2.375331e+003,6.709492e+002
2.376295e+003,6.728407e+002
2.377259e+003,6.752697e+002
2.378223e+003,6.734198e+002
2.379188e+003,6.666749e+002
2.380152e+003,6.631162e+002
2.381116e+003,6.673096e+002
2.382080e+003,6.723146e+002
2.383045e+003,6.724610e+002
2.384009e+003,6.678037e+002
2.384973e+003,6.542238e+002
2.385937e+003,6.433724e+002
2.386902e+003,6.508571e+002
2.387866e+003,6.671234e+002
2.388830e+003,6.800010e+002
2.389794e+003,6.850954e+002
2.390759e+003,6.777627e+002
2.391723e+003,6.631978e+002
2.392687e+003,6.558242e+002
2.393651e+003,6.598265e+002
2.394615e+003,6.655886e+002
2.395580e+003,6.688975e+002
2.396544e+003,6.709501e+002
2.397508e+003,6.731993e+002
2.398472e+003,6.703689e+002
2.399437e+003,6.598719e+002
2.400401e+003,6.539907e+002
2.401365e+003,6.563783e+002
2.402329e+003,6.590220e+002
2.403293e+003,6.567338e+002
2.404258e+003,6.525574e+002
2.405222e+003,6.519526e+002
2.406186e+003,6.545037e+002
2.407150e+003,6.547804e+002
2.408115e+003,6.525027e+002
2.409079e+003,6.532650e+002
2.410043e+003,6.564833e+002
2.411007e+003,6.556102e+002
2.411972e+003,6.519270e+002
2.412936e+003,6.545720e+002
2.413900e+003,6.615802e+002
2.414864e+003,6.621244e+002
2.415829e+003,6.567857e+002
2.416793e+003,6.564436e+002
2.417757e+003,6.641893e+002
2.418721e+003,6.703028e+002
2.419686e+003,6.683760e+002
2.420650e+003,6.647871e+002
2.421614e+003,6.637592e+002
2.422578e+003,6.646877e+002
2.423542e+003,6.697666e+002
2.424507e+003,6.721494e+002
2.425471e+003,6.647672e+002
2.426435e+003,6.556116e+002
2.427399e+003,6.502239e+002
2.428364e+003,6.455335e+002
2.429328e+003,6.408672e+002
2.430292e+003,6.393280e+002
2.431256e+003,6.412112e+002
2.432220e+003,6.458702e+002
2.433185e+003,6.504447e+002
2.434149e+003,6.535176e+002
2.435113e+003,6.510385e+002
2.436077e+003,6.415562e+002
2.437042e+003,6.329503e+002
2.438006e+003,6.259683e+002
2.438970e+003,6.221699e+002
2.439934e+003,6.235253e+002
2.440899e+003,6.245512e+002
2.441863e+003,6.217024e+002
2.442827e+003,6.192051e+002
2.443791e+003,6.201100e+002
2.444756e+003,6.211741e+002
2.445720e+003,6.190836e+002
2.446684e+003,6.147325e+002
2.447648e+003,6.112628e+002
2.448613e+003,6.090020e+002
2.449577e+003,6.077719e+002
2.450541e+003,6.071105e+002
2.451505e+003,6.044454e+002
2.452469e+003,6.014813e+002
2.453434e+003,6.048110e+002
2.454398e+003,6.109786e+002
2.455362e+003,6.059103e+002
2.456326e+003,5.894298e+002
2.457291e+003,5.797884e+002
2.458255e+003,5.830739e+002
2.459219e+003,5.899375e+002
2.460183e+003,5.944418e+002
2.461147e+003,5.935709e+002
2.462112e+003,5.930007e+002
2.463076e+003,5.928702e+002
2.464040e+003,5.858552e+002
2.465004e+003,5.742947e+002
2.465969e+003,5.674694e+002
2.466933e+003,5.663995e+002
2.467897e+003,5.637551e+002
2.468861e+003,5.570942e+002
2.469826e+003,5.560759e+002
2.470790e+003,5.631274e+002
2.471754e+003,5.654166e+002
2.472718e+003,5.649832e+002
2.473683e+003,5.653325e+002
2.474647e+003,5.621279e+002
2.475611e+003,5.541416e+002
2.476575e+003,5.449457e+002
2.477540e+003,5.385667e+002
2.478504e+003,5.349971e+002
2.479468e+003,5.331943e+002
2.480432e+003,5.333571e+002
2.481396e+003,5.358968e+002
2.482361e+003,5.452831e+002
2.483325e+003,5.554028e+002
2.484289e+003,5.539315e+002
2.485253e+003,5.455981e+002
2.486218e+003,5.356854e+002
2.487182e+003,5.247927e+002
2.488146e+003,5.143413e+002
2.489110e+003,5.065754e+002
2.490074e+003,5.032940e+002
2.491039e+003,5.051696e+002
2.492003e+003,5.098831e+002
2.492967e+003,5.118748e+002
2.493931e+003,5.100164e+002
2.494896e+003,5.091110e+002
2.495860e+003,5.065344e+002
2.496824e+003,5.024116e+002
2.497788e+003,4.999480e+002
2.498753e+003,4.973808e+002
2.499717e+003,4.931778e+002
2.500681e+003,4.881208e+002
2.501645e+003,4.865795e+002
2.502610e+003,4.892099e+002
2.503574e+003,4.885863e+002
2.504538e+003,4.808386e+002
2.505502e+003,4.751153e+002
2.506467e+003,4.789759e+002
2.507431e+003,4.843796e+002
2.508395e+003,4.859814e+002
2.509359e+003,4.851397e+002
2.510323e+003,4.801779e+002
2.511288e+003,4.740016e+002
2.512252e+003,4.710540e+002
2.513216e+003,4.693318e+002
2.514180e+003,4.644600e+002
2.515145e+003,4.580995e+002
2.516109e+003,4.550363e+002
2.517073e+003,4.553040e+002
2.518037e+003,4.546584e+002
2.519001e+003,4.520882e+002
2.519966e+003,4.500779e+002
2.520930e+003,4.476038e+002
2.521894e+003,4.497693e+002
2.522858e+003,4.594401e+002
2.523823e+003,4.634230e+002
2.524787e+003,4.575644e+002
2.525751e+003,4.497692e+002
2.526715e+003,4.438997e+002
2.527680e+003,4.397182e+002
2.528644e+003,4.378879e+002
2.529608e+003,4.368962e+002
2.530572e+003,4.305754e+002
2.531537e+003,4.224743e+002
2.532501e+003,4.234004e+002
2.533465e+003,4.275179e+002
2.534429e+003,4.282337e+002
2.535394e+003,4.284854e+002
2.536358e+003,4.279557e+002
2.537322e+003,4.260383e+002
2.538286e+003,4.255354e+002
2.539250e+003,4.257430e+002
2.540215e+003,4.225888e+002
2.541179e+003,4.156893e+002
2.542143e+003,4.107184e+002
2.543107e+003,4.124672e+002
2.544072e+003,4.162346e+002
2.545036e+003,4.177147e+002
2.546000e+003,4.201559e+002
2.546964e+003,4.237732e+002
2.547928e+003,4.225491e+002
2.548893e+003,4.150198e+002
2.549857e+003,4.116647e+002
2.550821e+003,4.171545e+002
2.551785e+003,4.221251e+002
2.552750e+003,4.205237e+002
2.553714e+003,4.130557e+002
2.554678e+003,3.989880e+002
2.555642e+003,3.881790e+002
2.556607e+003,3.883736e+002
2.557571e+003,3.908858e+002
2.558535e+003,3.934648e+002
2.559499e+003,3.924218e+002
2.560464e+003,3.848391e+002
2.561428e+003,3.793496e+002
2.562392e+003,3.824492e+002
2.563356e+003,3.873126e+002
2.564321e+003,3.841726e+002
2.565285e+003,3.773133e+002
2.566249e+003,3.767758e+002
2.567213e+003,3.798275e+002
2.568177e+003,3.793515e+002
2.569142e+003,3.760291e+002
2.570106e+003,3.705978e+002
2.571070e+003,3.655956e+002
2.572034e+003,3.630846e+002
2.572999e+003,3.639385e+002
2.573963e+003,3.679967e+002
2.574927e+003,3.721760e+002
2.575891e+003,3.746740e+002
2.576855e+003,3.737614e+002
2.577820e+003,3.674463e+002
2.578784e+003,3.595718e+002
2.579748e+003,3.520746e+002
2.580712e+003,3.414357e+002
2.581677e+003,3.362474e+002
2.582641e+003,3.374365e+002
2.583605e+003,3.386734e+002
2.584569e+003,3.418894e+002
2.585534e+003,3.435222e+002
2.586498e+003,3.404909e+002
2.587462e+003,3.377432e+002
2.588426e+003,3.393856e+002
2.589391e+003,3.410773e+002
2.590355e+003,3.368975e+002
2.591319e+003,3.297297e+002
2.592283e+003,3.270316e+002
2.593248e+003,3.272509e+002
2.594212e+003,3.249281e+002
2.595176e+003,3.213433e+002
2.596140e+003,3.192783e+002
2.597104e+003,3.187811e+002
2.598069e+003,3.216783e+002
2.599033e+003,3.245399e+002
2.599997e+003,3.176480e+002
2.600961e+003,3.029393e+002
2.601926e+003,2.968291e+002
2.602890e+003,3.030957e+002
2.603854e+003,3.077368e+002
2.604818e+003,3.078569e+002
2.605782e+003,3.041917e+002
2.606747e+003,2.983870e+002
2.607711e+003,2.938585e+002
2.608675e+003,2.909319e+002
2.609639e+003,2.884360e+002
2.610604e+003,2.864493e+002
2.611568e+003,2.873474e+002
2.612532e+003,2.918260e+002
2.613496e+003,2.967211e+002
2.614461e+003,2.985608e+002
2.615425e+003,2.964889e+002
2.616389e+003,2.911752e+002
2.617353e+003,2.827811e+002
2.618318e+003,2.704180e+002
2.619282e+003,2.590466e+002
2.620246e+003,2.543831e+002
2.621210e+003,2.572411e+002
2.622175e+003,2.627318e+002
2.623139e+003,2.678403e+002
2.624103e+003,2.727968e+002
2.625067e+003,2.734142e+002
2.626031e+003,2.679302e+002
2.626996e+003,2.638029e+002
2.627960e+003,2.623876e+002
2.628924e+003,2.591779e+002
2.629888e+003,2.552293e+002
2.630853e+003,2.501731e+002
2.631817e+003,2.483943e+002
2.632781e+003,2.557101e+002
2.633745e+003,2.678840e+002
2.634709e+003,2.753086e+002
2.635674e+003,2.729290e+002
2.636638e+003,2.623047e+002
2.637602e+003,2.505807e+002
2.638566e+003,2.458811e+002
2.639531e+003,2.439360e+002
2.640495e+003,2.339472e+002
2.641459e+003,2.264921e+002
2.642423e+003,2.244442e+002
2.643388e+003,2.281530e+002
2.644352e+003,2.371684e+002
2.645316e+003,2.403499e+002
2.646280e+003,2.333648e+002
2.647245e+003,2.241803e+002
2.648209e+003,2.218616e+002
2.649173e+003,2.251204e+002
2.650137e+003,2.268010e+002
2.651102e+003,2.300409e+002
2.652066e+003,2.358679e+002
2.653030e+003,2.369409e+002
2.653994e+003,2.387444e+002
2.654958e+003,2.399126e+002
2.655923e+003,2.371741e+002
2.656887e+003,2.343710e+002
2.657851e+003,2.281978e+002
2.658815e+003,2.197070e+002
2.659780e+003,2.135366e+002
2.660744e+003,2.110057e+002
2.661708e+003,2.141058e+002
2.662672e+003,2.203839e+002
2.663636e+003,2.169242e+002
2.664601e+003,2.078560e+002
2.665565e+003,2.085988e+002
2.666529e+003,2.137610e+002
2.667493e+003,2.100601e+002
2.668458e+003,2.027954e+002
2.669422e+003,2.020395e+002
2.670386e+003,2.030555e+002
2.671350e+003,2.011866e+002
2.672315e+003,2.004496e+002
2.673279e+003,1.971350e+002
2.674243e+003,1.848407e+002
2.675207e+003,1.819390e+002
2.676172e+003,1.938414e+002
2.677136e+003,1.922398e+002
2.678100e+003,1.779157e+002
2.679064e+003,1.753771e+002
2.680029e+003,1.828340e+002
2.680993e+003,1.876009e+002
2.681957e+003,1.887739e+002
2.682921e+003,1.848181e+002
2.683885e+003,1.730039e+002
2.684850e+003,1.616461e+002
2.685814e+003,1.613668e+002
2.686778e+003,1.659054e+002
2.687742e+003,1.677545e+002
2.688707e+003,1.728354e+002
2.689671e+003,1.790536e+002
2.690635e+003,1.812355e+002
2.691599e+003,1.838710e+002
2.692563e+003,1.812901e+002
2.693528e+003,1.703923e+002
2.694492e+003,1.603465e+002
2.695456e+003,1.568383e+002
2.696420e+003,1.562416e+002
2.697385e+003,1.554251e+002
2.698349e+003,1.543117e+002
2.699313e+003,1.534926e+002
2.700277e+003,1.549818e+002
2.701242e+003,1.572721e+002
2.702206e+003,1.569065e+002
2.703170e+003,1.525418e+002
2.704134e+003,1.489789e+002
2.705099e+003,1.562084e+002
2.706063e+003,1.645205e+002
2.707027e+003,1.596288e+002
2.707991e+003,1.489201e+002
2.708956e+003,1.461533e+002
2.709920e+003,1.464152e+002
2.710884e+003,1.456195e+002
2.711848e+003,1.454347e+002
2.712813e+003,1.411003e+002
2.713777e+003,1.387195e+002
2.714741e+003,1.457101e+002
2.715705e+003,1.495318e+002
2.716669e+003,1.399655e+002
2.717634e+003,1.261928e+002
2.718598e+003,1.227311e+002
2.719562e+003,1.323519e+002
2.720526e+003,1.386988e+002
2.721490e+003,1.308493e+002
2.722455e+003,1.238597e+002
2.723419e+003,1.244559e+002
2.724383e+003,1.224627e+002
2.725347e+003,1.187770e+002
2.726312e+003,1.195195e+002
2.727276e+003,1.196487e+002
2.728240e+003,1.154904e+002
2.729204e+003,1.128705e+002
2.730169e+003,1.108882e+002
2.731133e+003,1.033121e+002
2.732097e+003,9.972420e+001
2.733061e+003,1.073370e+002
2.734026e+003,1.069484e+002
2.734990e+003,1.076655e+002
2.735954e+003,1.074803e+002
2.736918e+003,9.675006e+001
2.737883e+003,9.674979e+001
2.738847e+003,1.085201e+002
2.739811e+003,1.125393e+002
2.740775e+003,1.051213e+002
2.741740e+003,9.670142e+001
2.742704e+003,9.546844e+001
2.743668e+003,9.751375e+001
2.744632e+003,9.487166e+001
2.745596e+003,9.466638e+001
2.746561e+003,9.774864e+001
2.747525e+003,9.368094e+001
2.748489e+003,8.792278e+001
2.749453e+003,8.155664e+001
2.750417e+003,7.490009e+001
2.751382e+003,7.608463e+001
2.752346e+003,8.563484e+001
2.753310e+003,9.474947e+001
2.754274e+003,9.749147e+001
2.755239e+003,9.644388e+001
2.756203e+003,9.597452e+001
2.757167e+003,9.311530e+001
2.758131e+003,7.917596e+001
2.759096e+003,6.766428e+001
2.760060e+003,7.086301e+001
2.761024e+003,7.793246e+001
2.761988e+003,8.467163e+001
2.762953e+003,8.853232e+001
2.763917e+003,8.738123e+001
2.764881e+003,8.292786e+001
2.765845e+003,7.614581e+001
2.766810e+003,7.021494e+001
2.767774e+003,7.325067e+001
2.768738e+003,8.040402e+001
2.769702e+003,8.042499e+001
2.770667e+003,7.929993e+001
2.771631e+003,7.711377e+001
2.772595e+003,7.085397e+001
2.773559e+003,6.807300e+001
2.774523e+003,6.840521e+001
2.775488e+003,7.089661e+001
2.776452e+003,7.732101e+001
2.777416e+003,7.623709e+001
2.778380e+003,6.220993e+001
2.779344e+003,6.446964e+001
2.780309e+003,8.359210e+001
2.781273e+003,7.716763e+001
2.782237e+003,6.573288e+001
2.783201e+003,7.021765e+001
2.784166e+003,7.181842e+001
2.785130e+003,7.310663e+001
2.786094e+003,7.422342e+001
2.787058e+003,6.733624e+001
2.788023e+003,5.993439e+001
2.788987e+003,5.925867e+001
2.789951e+003,6.038257e+001
2.790915e+003,6.134433e+001
2.791880e+003,6.288708e+001
2.792844e+003,6.083847e+001
2.793808e+003,5.886548e+001
2.794772e+003,6.164700e+001
2.795737e+003,6.094296e+001
2.796701e+003,5.489514e+001
2.797665e+003,4.950250e+001
2.798629e+003,4.984714e+001
2.799594e+003,5.565381e+001
2.800558e+003,5.546463e+001
2.801522e+003,4.890384e+001
2.802486e+003,5.230151e+001
2.803450e+003,6.015173e+001
2.804415e+003,5.984372e+001
2.805379e+003,5.378629e+001
2.806343e+003,4.778287e+001
2.807307e+003,5.201620e+001
2.808271e+003,5.590915e+001
2.809236e+003,4.908282e+001
2.810200e+003,4.716559e+001
2.811164e+003,5.467819e+001
2.812128e+003,5.092200e+001
2.813093e+003,3.562964e+001
2.814057e+003,4.224982e+001
2.815021e+003,6.157944e+001
2.815985e+003,5.518878e+001
2.816950e+003,3.704822e+001
2.817914e+003,3.443967e+001
2.818878e+003,4.043753e+001
2.819842e+003,4.237967e+001
2.820807e+003,4.172314e+001
2.821771e+003,3.577521e+001
2.822735e+003,2.298965e+001
2.823699e+003,1.950385e+001
2.824664e+003,3.409125e+001
2.825628e+003,3.936707e+001
2.826592e+003,3.382202e+001
2.827556e+003,3.115796e+001
2.828521e+003,2.501810e+001
2.829485e+003,1.936206e+001
2.830449e+003,1.874799e+001
2.831413e+003,2.108160e+001
2.832377e+003,2.250549e+001
2.833342e+003,2.395685e+001
2.834306e+003,2.687869e+001
2.835270e+003,2.575409e+001
2.836234e+003,1.765582e+001
2.837198e+003,1.684216e+001
2.838163e+003,2.904553e+001
2.839127e+003,3.576465e+001
2.840091e+003,3.660901e+001
2.841055e+003,3.396558e+001
2.842020e+003,2.683868e+001
2.842984e+003,2.468439e+001
2.843948e+003,2.828943e+001
2.844912e+003,2.715701e+001
2.845877e+003,2.013538e+001
2.846841e+003,1.402383e+001
2.847805e+003,1.018665e+001
2.848769e+003,1.020245e+001
2.849734e+003,1.439417e+001
2.850698e+003,1.725409e+001
2.851662e+003,1.880099e+001
2.852626e+003,1.650507e+001
2.853591e+003,1.305042e+001
2.854555e+003,1.439209e+001
2.855519e+003,1.879486e+001
2.856483e+003,2.030438e+001
2.857448e+003,1.759027e+001
2.858412e+003,1.647662e+001
2.859376e+003,2.227362e+001
2.860340e+003,2.443384e+001
2.861304e+003,1.684265e+001
2.862269e+003,1.507553e+001
2.863233e+003,1.629419e+001
2.864197e+003,1.669830e+001
2.865161e+003,2.055066e+001
2.866125e+003,2.386450e+001
2.867090e+003,2.280756e+001
2.868054e+003,1.894003e+001
2.869018e+003,1.319647e+001
2.869982e+003,7.976746e+000
2.870947e+003,9.547058e+000
2.871911e+003,1.493188e+001
2.872875e+003,1.714612e+001
2.873839e+003,1.634271e+001
2.874804e+003,1.405295e+001
2.875768e+003,1.318597e+001
2.876732e+003,1.416464e+001
2.877696e+003,1.289832e+001
2.878661e+003,9.677673e+000
2.879625e+003,1.020746e+001
2.880589e+003,1.489246e+001
2.881553e+003,1.740750e+001
2.882518e+003,1.666043e+001
2.883482e+003,1.911383e+001
2.884446e+003,2.473761e+001
2.885410e+003,3.172998e+001
2.886375e+003,3.942102e+001
2.887339e+003,4.391870e+001
2.888303e+003,4.621918e+001
2.889267e+003,5.158194e+001
2.890231e+003,5.934113e+001
2.891196e+003,6.328290e+001
2.892160e+003,6.298831e+001
2.893124e+003,6.672198e+001
2.894088e+003,7.632196e+001
2.895052e+003,8.111020e+001
2.896017e+003,8.045648e+001
2.896981e+003,8.472314e+001
2.897945e+003,9.313480e+001
2.898909e+003,9.846777e+001
2.899874e+003,1.010196e+002
2.900838e+003,1.042816e+002
2.901802e+003,1.086574e+002
2.902766e+003,1.127685e+002
2.903731e+003,1.166359e+002
2.904695e+003,1.228305e+002
2.905659e+003,1.315430e+002
2.906623e+003,1.331505e+002
2.907588e+003,1.285045e+002
2.908552e+003,1.331631e+002
2.909516e+003,1.446044e+002
2.910480e+003,1.534198e+002
2.911445e+003,1.590890e+002
2.912409e+003,1.624447e+002
2.913373e+003,1.650528e+002
2.914337e+003,1.706735e+002
2.915302e+003,1.788689e+002
2.916266e+003,1.857762e+002
2.917230e+003,1.913622e+002
2.918194e+003,1.946770e+002
2.919158e+003,1.965714e+002
2.920123e+003,2.020297e+002
2.921087e+003,2.084171e+002
2.922051e+003,2.085816e+002
2.923015e+003,2.058898e+002
2.923979e+003,2.051243e+002
2.924944e+003,2.089236e+002
2.925908e+003,2.231839e+002
2.926872e+003,2.425536e+002
2.927836e+003,2.500926e+002
2.928801e+003,2.488487e+002
2.929765e+003,2.510087e+002
2.930729e+003,2.554454e+002
2.931693e+003,2.598289e+002
2.932658e+003,2.648096e+002
2.933622e+003,2.729381e+002
2.934586e+003,2.813082e+002
2.935550e+003,2.850831e+002
2.936515e+003,2.866421e+002
2.937479e+003,2.890458e+002
2.938443e+003,2.920316e+002
2.939407e+003,2.943038e+002
2.940372e+003,2.977054e+002
2.941336e+003,3.086763e+002
2.942300e+003,3.204171e+002
2.943264e+003,3.234679e+002
2.944229e+003,3.239485e+002
2.945193e+003,3.276741e+002
2.946157e+003,3.327325e+002
2.947121e+003,3.376396e+002
2.948085e+003,3.416238e+002
2.949050e+003,3.434342e+002
2.950014e+003,3.456877e+002
2.950978e+003,3.536815e+002
2.951942e+003,3.623867e+002
2.952906e+003,3.658926e+002
2.953871e+003,3.680454e+002
2.954835e+003,3.701412e+002
2.955799e+003,3.741513e+002
2.956763e+003,3.820769e+002
2.957728e+003,3.883179e+002
2.958692e+003,3.891448e+002
2.959656e+003,3.901976e+002
2.960620e+003,3.965856e+002
2.961585e+003,4.044469e+002
2.962549e+003,4.117570e+002
2.963513e+003,4.167052e+002
2.964477e+003,4.163945e+002
2.965442e+003,4.165474e+002
2.966406e+003,4.183376e+002
2.967370e+003,4.229209e+002
2.968334e+003,4.307844e+002
2.969299e+003,4.359613e+002
2.970263e+003,4.356777e+002
2.971227e+003,4.341500e+002
2.972191e+003,4.331315e+002
2.973156e+003,4.367798e+002
2.974120e+003,4.535873e+002
2.975084e+003,4.625095e+002
2.976048e+003,4.585137e+002
2.977012e+003,4.584671e+002
2.977977e+003,4.647939e+002
2.978941e+003,4.703253e+002
2.979905e+003,4.729513e+002
2.980869e+003,4.721627e+002
2.981833e+003,4.684879e+002
2.982798e+003,4.669557e+002
2.983762e+003,4.687441e+002
2.984726e+003,4.767659e+002
2.985690e+003,4.939493e+002
2.986655e+003,5.009065e+002
2.987619e+003,4.978872e+002
2.988583e+003,4.957867e+002
2.989547e+003,4.959855e+002
2.990512e+003,4.971803e+002
2.991476e+003,4.994258e+002
2.992440e+003,5.048295e+002
2.993404e+003,5.127660e+002
2.994369e+003,5.160114e+002
2.995333e+003,5.147914e+002
2.996297e+003,5.183233e+002
2.997261e+003,5.252032e+002
2.998226e+003,5.258333e+002
2.999190e+003,5.233373e+002
3.000154e+003,5.262982e+002
3.001118e+003,5.315632e+002
3.002083e+003,5.302145e+002
3.003047e+003,5.272382e+002
3.004011e+003,5.345709e+002
3.004975e+003,5.469023e+002
3.005939e+003,5.513732e+002
3.006904e+003,5.514333e+002
3.007868e+003,5.568489e+002
3.008832e+003,5.636516e+002
3.009796e+003,5.651028e+002
3.010760e+003,5.658718e+002
3.011725e+003,5.714497e+002
3.012689e+003,5.783348e+002
3.013653e+003,5.840049e+002
3.014617e+003,5.880344e+002
3.015582e+003,5.898959e+002
3.016546e+003,5.905488e+002
3.017510e+003,5.905967e+002
3.018474e+003,5.912827e+002
3.019439e+003,5.941659e+002
3.020403e+003,5.975652e+002
3.021367e+003,6.002776e+002
3.022331e+003,6.036924e+002
3.023296e+003,6.080631e+002
3.024260e+003,6.152723e+002
3.025224e+003,6.259393e+002
3.026188e+003,6.331679e+002
3.027153e+003,6.323887e+002
3.028117e+003,6.323940e+002
3.029081e+003,6.406576e+002
3.030045e+003,6.452073e+002
3.031010e+003,6.415288e+002
3.031974e+003,6.430560e+002
3.032938e+003,6.513624e+002
3.033902e+003,6.591266e+002
3.034866e+003,6.649548e+002
3.035831e+003,6.717966e+002
3.036795e+003,6.799216e+002
3.037759e+003,6.859788e+002
3.038723e+003,6.891334e+002
3.039688e+003,6.859644e+002
3.040652e+003,6.741072e+002
3.041616e+003,6.775009e+002
3.042580e+003,6.929357e+002
3.043544e+003,7.011131e+002
3.044509e+003,7.029359e+002
3.045473e+003,7.032103e+002
3.046437e+003,7.047620e+002
3.047401e+003,7.142565e+002
3.048366e+003,7.269904e+002
3.049330e+003,7.284204e+002
3.050294e+003,7.227492e+002
3.051258e+003,7.261996e+002
3.052223e+003,7.347700e+002
3.053187e+003,7.399147e+002
3.054151e+003,7.434753e+002
3.055115e+003,7.468904e+002
3.056080e+003,7.514220e+002
3.057044e+003,7.599141e+002
3.058008e+003,7.663050e+002
3.058972e+003,7.646700e+002
3.059937e+003,7.619091e+002
3.060901e+003,7.666275e+002
3.061865e+003,7.735280e+002
3.062829e+003,7.776702e+002
3.063793e+003,7.806067e+002
3.064758e+003,7.818962e+002
3.065722e+003,7.843855e+002
3.066686e+003,7.886519e+002
3.067650e+003,7.962899e+002
3.068615e+003,8.075289e+002
3.069579e+003,8.140833e+002
3.070543e+003,8.118491e+002
3.071507e+003,8.073488e+002
3.072471e+003,8.012662e+002
3.073436e+003,8.020533e+002
3.074400e+003,8.122949e+002
3.075364e+003,8.238446e+002
3.076328e+003,8.357352e+002
3.077293e+003,8.390714e+002
3.078257e+003,8.348031e+002
3.079221e+003,8.300366e+002
3.080185e+003,8.275656e+002
3.081150e+003,8.323473e+002
3.082114e+003,8.433948e+002
3.083078e+003,8.435071e+002
3.084042e+003,8.338610e+002
3.085007e+003,8.311909e+002
3.085971e+003,8.334442e+002
3.086935e+003,8.363599e+002
3.087899e+003,8.383295e+002
3.088864e+003,8.351392e+002
3.089828e+003,8.320265e+002
3.090792e+003,8.370211e+002
3.091756e+003,8.451696e+002
3.092720e+003,8.504811e+002
3.093685e+003,8.527373e+002
3.094649e+003,8.490629e+002
3.095613e+003,8.456637e+002
3.096577e+003,8.497606e+002
3.097542e+003,8.565415e+002
3.098506e+003,8.644587e+002
3.099470e+003,8.718558e+002
3.100434e+003,8.784237e+002
3.101398e+003,8.829739e+002
3.102363e+003,8.849211e+002
3.103327e+003,8.854176e+002
3.104291e+003,8.852905e+002
3.105255e+003,8.829978e+002
3.106220e+003,8.730781e+002
3.107184e+003,8.718527e+002
3.108148e+003,8.817897e+002
3.109112e+003,8.867913e+002
3.110077e+003,8.856268e+002
3.111041e+003,8.823181e+002
3.112005e+003,8.799098e+002
3.112969e+003,8.863799e+002
3.113934e+003,9.012336e+002
3.114898e+003,9.105079e+002
3.115862e+003,9.138015e+002
3.116826e+003,9.108295e+002
3.117791e+003,9.046904e+002
3.118755e+003,9.123052e+002
3.119719e+003,9.260326e+002
3.120683e+003,9.332017e+002
3.121647e+003,9.354164e+002
3.122612e+003,9.333619e+002
3.123576e+003,9.326161e+002
3.124540e+003,9.388546e+002
3.125504e+003,9.483962e+002
3.126469e+003,9.581655e+002
3.127433e+003,9.620908e+002
3.128397e+003,9.443735e+002
3.129361e+003,9.305541e+002
3.130325e+003,9.402377e+002
3.131290e+003,9.525315e+002
3.132254e+003,9.622109e+002
3.133218e+003,9.672703e+002
3.134182e+003,9.673965e+002
3.135147e+003,9.690558e+002
3.136111e+003,9.753619e+002
3.137075e+003,9.810691e+002
3.138039e+003,9.854226e+002
3.139004e+003,9.834635e+002
3.139968e+003,9.739517e+002
3.140932e+003,9.728280e+002
3.141896e+003,9.791754e+002
3.142861e+003,9.829301e+002
3.143825e+003,9.845763e+002
3.144789e+003,9.897859e+002
3.145753e+003,9.984573e+002
3.146718e+003,1.007368e+003
3.147682e+003,1.015937e+003
3.148646e+003,1.022998e+003
3.149610e+003,1.027882e+003
3.150574e+003,1.027839e+003
3.151539e+003,1.025537e+003
3.152503e+003,1.020547e+003
3.153467e+003,1.020250e+003
3.154431e+003,1.033672e+003
3.155396e+003,1.043783e+003
3.156360e+003,1.038744e+003
3.157324e+003,1.033811e+003
3.158288e+003,1.042742e+003
3.159252e+003,1.052284e+003
3.160217e+003,1.050292e+003
3.161181e+003,1.051227e+003
3.162145e+003,1.059447e+003
3.163109e+003,1.066317e+003
3.164074e+003,1.070696e+003
3.165038e+003,1.074535e+003
3.166002e+003,1.078193e+003
3.166966e+003,1.081318e+003
3.167931e+003,1.083525e+003
3.168895e+003,1.081712e+003
3.169859e+003,1.076094e+003
3.170823e+003,1.075197e+003
3.171788e+003,1.078216e+003
3.172752e+003,1.081829e+003
3.173716e+003,1.084884e+003
3.174680e+003,1.084128e+003
3.175645e+003,1.082806e+003
3.176609e+003,1.086030e+003
3.177573e+003,1.091111e+003
3.178537e+003,1.095859e+003
3.179501e+003,1.098232e+003
3.180466e+003,1.094234e+003
3.181430e+003,1.089763e+003
3.182394e+003,1.090503e+003
3.183358e+003,1.093251e+003
3.184323e+003,1.098274e+003
3.185287e+003,1.099997e+003
3.186251e+003,1.097088e+003
3.187215e+003,1.097798e+003
3.188179e+003,1.104281e+003
3.189144e+003,1.109958e+003
3.190108e+003,1.112354e+003
3.191072e+003,1.114382e+003
3.192036e+003,1.116468e+003
3.193001e+003,1.119764e+003
3.193965e+003,1.123251e+003
3.194929e+003,1.115990e+003
3.195893e+003,1.104621e+003
3.196858e+003,1.105995e+003
3.197822e+003,1.114639e+003
3.198786e+003,1.117465e+003
3.199750e+003,1.117811e+003
3.200715e+003,1.121385e+003
3.201679e+003,1.125425e+003
3.202643e+003,1.123991e+003
3.203607e+003,1.121589e+003
3.204572e+003,1.123113e+003
3.205536e+003,1.124500e+003
3.206500e+003,1.122229e+003
3.207464e+003,1.125623e+003
3.208428e+003,1.137531e+003
3.209393e+003,1.143631e+003
3.210357e+003,1.138314e+003
3.211321e+003,1.132501e+003
3.212285e+003,1.130170e+003
3.213250e+003,1.133021e+003
3.214214e+003,1.141628e+003
3.215178e+003,1.150235e+003
3.216142e+003,1.157768e+003
3.217106e+003,1.158694e+003
3.218071e+003,1.156007e+003
3.219035e+003,1.156960e+003
3.219999e+003,1.160369e+003
3.220963e+003,1.161791e+003
3.221928e+003,1.162685e+003
3.222892e+003,1.166455e+003
3.223856e+003,1.170015e+003
3.224820e+003,1.166131e+003
3.225785e+003,1.162378e+003
3.226749e+003,1.164869e+003
3.227713e+003,1.170167e+003
3.228677e+003,1.177729e+003
3.229642e+003,1.181787e+003
3.230606e+003,1.180430e+003
3.231570e+003,1.178986e+003
3.232534e+003,1.179980e+003
3.233499e+003,1.182389e+003
3.234463e+003,1.186923e+003
3.235427e+003,1.188093e+003
3.236391e+003,1.186174e+003
3.237355e+003,1.189286e+003
3.238320e+003,1.195354e+003
3.239284e+003,1.196976e+003
3.240248e+003,1.195828e+003
3.241212e+003,1.196056e+003
3.242177e+003,1.198706e+003
3.243141e+003,1.205484e+003
3.244105e+003,1.213792e+003
3.245069e+003,1.221030e+003
3.246033e+003,1.223942e+003
3.246998e+003,1.213128e+003
3.247962e+003,1.206688e+003
3.248926e+003,1.213724e+003
3.249890e+003,1.223534e+003
3.250855e+003,1.232540e+003
3.251819e+003,1.233028e+003
3.252783e+003,1.223391e+003
3.253747e+003,1.219815e+003
3.254712e+003,1.229347e+003
3.255676e+003,1.237043e+003
3.256640e+003,1.242243e+003
3.257604e+003,1.244450e+003
3.258569e+003,1.244853e+003
3.259533e+003,1.246495e+003
3.260497e+003,1.249704e+003
3.261461e+003,1.255897e+003
3.262426e+003,1.261901e+003
3.263390e+003,1.263730e+003
3.264354e+003,1.263738e+003
3.265318e+003,1.264616e+003
3.266282e+003,1.267296e+003
3.267247e+003,1.273183e+003
3.268211e+003,1.280880e+003
3.269175e+003,1.293220e+003
3.270139e+003,1.295631e+003
3.271104e+003,1.285648e+003
3.272068e+003,1.280797e+003
3.273032e+003,1.285437e+003
3.273996e+003,1.292859e+003
3.274960e+003,1.300437e+003
3.275925e+003,1.298118e+003
3.276889e+003,1.286299e+003
3.277853e+003,1.289961e+003
3.278817e+003,1.302836e+003
3.279782e+003,1.309345e+003
3.280746e+003,1.311236e+003
3.281710e+003,1.310701e+003
3.282674e+003,1.309222e+003
3.283639e+003,1.307176e+003
3.284603e+003,1.308372e+003
3.285567e+003,1.317006e+003
3.286531e+003,1.326236e+003
3.287496e+003,1.331450e+003
3.288460e+003,1.332601e+003
3.289424e+003,1.327455e+003
3.290388e+003,1.328733e+003
3.291353e+003,1.336853e+003
3.292317e+003,1.339288e+003
3.293281e+003,1.335728e+003
3.294245e+003,1.336086e+003
3.295209e+003,1.339498e+003
3.296174e+003,1.331666e+003
3.297138e+003,1.317952e+003
3.298102e+003,1.323210e+003
3.299066e+003,1.338182e+003
3.300031e+003,1.349834e+003
3.300995e+003,1.356052e+003
3.301959e+003,1.351702e+003
3.302923e+003,1.345993e+003
3.303887e+003,1.342517e+003
3.304852e+003,1.342510e+003
3.305816e+003,1.346610e+003
3.306780e+003,1.349759e+003
3.307744e+003,1.348792e+003
3.308709e+003,1.347867e+003
3.309673e+003,1.347121e+003
3.310637e+003,1.349943e+003
3.311601e+003,1.355429e+003
3.312566e+003,1.359226e+003
3.313530e+003,1.362091e+003
3.314494e+003,1.368949e+003
3.315458e+003,1.374731e+003
3.316423e+003,1.370108e+003
3.317387e+003,1.362264e+003
3.318351e+003,1.364365e+003
3.319315e+003,1.369139e+003
3.320280e+003,1.367884e+003
3.321244e+003,1.369554e+003
3.322208e+003,1.379344e+003
3.323172e+003,1.381028e+003
3.324136e+003,1.371974e+003
3.325101e+003,1.371808e+003
3.326065e+003,1.384640e+003
3.327029e+003,1.390685e+003
3.327993e+003,1.385388e+003
3.328958e+003,1.383815e+003
3.329922e+003,1.385465e+003
3.330886e+003,1.385824e+003
3.331850e+003,1.387247e+003
3.332814e+003,1.396883e+003
3.333779e+003,1.406086e+003
3.334743e+003,1.405011e+003
3.335707e+003,1.404250e+003
3.336671e+003,1.411582e+003
3.337636e+003,1.418924e+003
3.338600e+003,1.419820e+003
3.339564e+003,1.418201e+003
3.340528e+003,1.412068e+003
3.341493e+003,1.414674e+003
3.342457e+003,1.425921e+003
3.343421e+003,1.430500e+003
3.344385e+003,1.429011e+003
3.345350e+003,1.428741e+003
3.346314e+003,1.431446e+003
3.347278e+003,1.438359e+003
3.348242e+003,1.446190e+003
3.349207e+003,1.447256e+003
3.350171e+003,1.445808e+003
3.351135e+003,1.448767e+003
3.352099e+003,1.451974e+003
3.353063e+003,1.451884e+003
3.354028e+003,1.453392e+003
3.354992e+003,1.457736e+003
3.355956e+003,1.458284e+003
3.356920e+003,1.453963e+003
3.357885e+003,1.456359e+003
3.358849e+003,1.469574e+003
3.359813e+003,1.474529e+003
3.360777e+003,1.471275e+003
3.361741e+003,1.472790e+003
3.362706e+003,1.476762e+003
3.363670e+003,1.479328e+003
3.364634e+003,1.479945e+003
3.365598e+003,1.475593e+003
3.366563e+003,1.476146e+003
3.367527e+003,1.489015e+003
3.368491e+003,1.500634e+003
3.369455e+003,1.499447e+003
3.370420e+003,1.494932e+003
3.371384e+003,1.487955e+003
3.372348e+003,1.487327e+003
3.373312e+003,1.493212e+003
3.374277e+003,1.503257e+003
3.375241e+003,1.514173e+003
3.376205e+003,1.517511e+003
3.377169e+003,1.514920e+003
3.378134e+003,1.513008e+003
3.379098e+003,1.512671e+003
3.380062e+003,1.516264e+003
3.381026e+003,1.519729e+003
3.381990e+003,1.515573e+003
3.382955e+003,1.511835e+003
3.383919e+003,1.512568e+003
3.384883e+003,1.515872e+003
3.385847e+003,1.520987e+003
3.386812e+003,1.519876e+003
3.387776e+003,1.512290e+003
3.388740e+003,1.511937e+003
3.389704e+003,1.521611e+003
3.390668e+003,1.528878e+003
3.391633e+003,1.533089e+003
3.392597e+003,1.525997e+003
3.393561e+003,1.517663e+003
3.394525e+003,1.526966e+003
3.395490e+003,1.537367e+003
3.396454e+003,1.536165e+003
3.397418e+003,1.532734e+003
3.398382e+003,1.532396e+003
3.399347e+003,1.535751e+003
3.400311e+003,1.544771e+003
3.401275e+003,1.546087e+003
3.402239e+003,1.534568e+003
3.403204e+003,1.533059e+003
3.404168e+003,1.539809e+003
3.405132e+003,1.546438e+003
3.406096e+003,1.551579e+003
3.407061e+003,1.554327e+003
3.408025e+003,1.555522e+003
3.408989e+003,1.555903e+003
3.409953e+003,1.556747e+003
3.410917e+003,1.560309e+003
3.411882e+003,1.562913e+003
3.412846e+003,1.560731e+003
3.413810e+003,1.558968e+003
3.414774e+003,1.558308e+003
3.415739e+003,1.560591e+003
3.416703e+003,1.564890e+003
3.417667e+003,1.565487e+003
3.418631e+003,1.563777e+003
3.419595e+003,1.569196e+003
3.420560e+003,1.577366e+003
3.421524e+003,1.575290e+003
3.422488e+003,1.568689e+003
3.423452e+003,1.564350e+003
3.424417e+003,1.563748e+003
3.425381e+003,1.569300e+003
3.426345e+003,1.574319e+003
3.427309e+003,1.577007e+003
3.428274e+003,1.578059e+003
3.429238e+003,1.577926e+003
3.430202e+003,1.576945e+003
3.431166e+003,1.575533e+003
3.432131e+003,1.582816e+003
3.433095e+003,1.595208e+003
3.434059e+003,1.596896e+003
3.435023e+003,1.593091e+003
3.435988e+003,1.585466e+003
3.436952e+003,1.585934e+003
3.437916e+003,1.602177e+003
3.438880e+003,1.617712e+003
3.439844e+003,1.622752e+003
3.440809e+003,1.621662e+003
3.441773e+003,1.614172e+003
3.442737e+003,1.611884e+003
3.443701e+003,1.615381e+003
3.444666e+003,1.617082e+003
3.445630e+003,1.618188e+003
3.446594e+003,1.623471e+003
3.447558e+003,1.630370e+003
3.448522e+003,1.635243e+003
3.449487e+003,1.637687e+003
3.450451e+003,1.637073e+003
3.451415e+003,1.635978e+003
3.452379e+003,1.635694e+003
3.453344e+003,1.638428e+003
3.454308e+003,1.645073e+003
3.455272e+003,1.653391e+003
3.456236e+003,1.662201e+003
3.457201e+003,1.665635e+003
3.458165e+003,1.665297e+003
3.459129e+003,1.668259e+003
3.460093e+003,1.672206e+003
3.461058e+003,1.671802e+003
3.462022e+003,1.670435e+003
3.462986e+003,1.672920e+003
3.463950e+003,1.678169e+003
3.464915e+003,1.688704e+003
3.465879e+003,1.694481e+003
3.466843e+003,1.694224e+003
3.467807e+003,1.699111e+003
3.468771e+003,1.709901e+003
3.469736e+003,1.718728e+003
3.470700e+003,1.722883e+003
3.471664e+003,1.718937e+003
3.472628e+003,1.711463e+003
3.473593e+003,1.715052e+003
3.474557e+003,1.722837e+003
3.475521e+003,1.727628e+003
3.476485e+003,1.734289e+003
3.477449e+003,1.745434e+003
3.478414e+003,1.747058e+003
3.479378e+003,1.736373e+003
3.480342e+003,1.733763e+003
3.481306e+003,1.745885e+003
3.482271e+003,1.752147e+003
3.483235e+003,1.752543e+003
3.484199e+003,1.751137e+003
3.485163e+003,1.751693e+003
3.486128e+003,1.765114e+003
3.487092e+003,1.776818e+003
3.488056e+003,1.776350e+003
3.489020e+003,1.772975e+003
3.489985e+003,1.771635e+003
3.490949e+003,1.773185e+003
3.491913e+003,1.778771e+003
3.492877e+003,1.781363e+003
3.493842e+003,1.780328e+003
3.494806e+003,1.785669e+003
3.495770e+003,1.794577e+003
3.496734e+003,1.801144e+003
3.497698e+003,1.804737e+003
3.498663e+003,1.804698e+003
3.499627e+003,1.805408e+003
3.500591e+003,0.000000e+000
