9.974011e+001,8.197888e+002
1.007043e+002,8.170356e+002
1.016686e+002,8.187869e+002
1.026328e+002,8.258579e+002
1.035970e+002,8.291740e+002
1.045613e+002,8.285723e+002
1.055255e+002,8.254925e+002
1.064897e+002,8.224177e+002
1.074540e+002,8.196029e+002
1.084182e+002,8.162102e+002
1.093824e+002,8.106261e+002
1.103467e+002,8.029960e+002
1.113109e+002,7.956700e+002
1.122751e+002,7.952361e+002
1.132394e+002,7.970802e+002
1.142036e+002,7.977781e+002
1.151678e+002,7.952599e+002
1.161321e+002,7.906563e+002
1.170963e+002,7.888896e+002
1.180605e+002,7.883602e+002
1.190248e+002,7.877388e+002
1.199890e+002,7.859952e+002
1.209532e+002,7.845219e+002
1.219175e+002,7.824760e+002
1.228817e+002,7.793396e+002
1.238459e+002,7.755593e+002
1.248102e+002,7.720708e+002
1.257744e+002,7.672763e+002
1.267386e+002,7.642057e+002
1.277029e+002,7.634302e+002
1.286671e+002,7.641565e+002
1.296313e+002,7.639368e+002
1.305956e+002,7.608494e+002
1.315598e+002,7.573625e+002
1.325240e+002,7.547587e+002
1.334883e+002,7.537237e+002
1.344525e+002,7.539213e+002
1.354167e+002,7.534878e+002
1.363810e+002,7.523824e+002
1.373452e+002,7.509575e+002
1.383094e+002,7.496202e+002
1.392737e+002,7.486724e+002
1.402379e+002,7.460775e+002
1.412021e+002,7.406200e+002
1.421664e+002,7.340591e+002
1.431306e+002,7.291787e+002
1.440948e+002,7.280250e+002
1.450591e+002,7.278223e+002
1.460233e+002,7.280464e+002
1.469875e+002,7.283107e+002
1.479518e+002,7.282475e+002
1.489160e+002,7.277783e+002
1.498802e+002,7.258918e+002
1.508445e+002,7.222666e+002
1.518087e+002,7.176095e+002
1.527729e+002,7.139608e+002
1.537372e+002,7.147722e+002
1.547014e+002,7.164719e+002
1.556656e+002,7.164087e+002
1.566299e+002,7.131483e+002
1.575941e+002,7.071007e+002
1.585583e+002,7.026592e+002
1.595226e+002,7.000605e+002
1.604868e+002,6.986218e+002
1.614510e+002,6.974418e+002
1.624153e+002,6.952294e+002
1.633795e+002,6.924797e+002
1.643438e+002,6.901707e+002
1.653080e+002,6.885874e+002
1.662722e+002,6.878305e+002
1.672365e+002,6.879565e+002
1.682007e+002,6.880220e+002
1.691649e+002,6.885840e+002
1.701292e+002,6.894952e+002
1.710934e+002,6.901477e+002
1.720576e+002,6.874693e+002
1.730219e+002,6.832919e+002
1.739861e+002,6.809708e+002
1.749503e+002,6.812026e+002
1.759146e+002,6.829891e+002
1.768788e+002,6.794951e+002
1.778430e+002,6.719202e+002
1.788073e+002,6.655781e+002
1.797715e+002,6.637167e+002
1.807357e+002,6.681046e+002
1.817000e+002,6.719596e+002
1.826642e+002,6.718320e+002
1.836284e+002,6.701042e+002
1.845927e+002,6.689910e+002
1.855569e+002,6.706836e+002
1.865211e+002,6.695059e+002
1.874854e+002,6.627131e+002
1.884496e+002,6.536967e+002
1.894138e+002,6.463083e+002
1.903781e+002,6.453911e+002
1.913423e+002,6.495117e+002
1.923065e+002,6.529460e+002
1.932708e+002,6.544727e+002
1.942350e+002,6.538524e+002
1.951992e+002,6.520012e+002
1.961635e+002,6.498072e+002
1.971277e+002,6.476860e+002
1.980919e+002,6.459258e+002
1.990562e+002,6.446085e+002
2.000204e+002,6.431885e+002
2.009846e+002,6.406071e+002
2.019489e+002,6.381031e+002
2.029131e+002,6.360250e+002
2.038773e+002,6.346242e+002
2.048416e+002,6.345624e+002
2.058058e+002,6.376707e+002
2.067700e+002,6.410958e+002
2.077343e+002,6.425319e+002
2.086985e+002,6.403138e+002
2.096627e+002,6.353753e+002
2.106270e+002,6.316268e+002
2.115912e+002,6.290374e+002
2.125554e+002,6.280782e+002
2.135197e+002,6.293899e+002
2.144839e+002,6.346506e+002
2.154481e+002,6.358731e+002
2.164124e+002,6.323176e+002
2.173766e+002,6.264011e+002
2.183408e+002,6.215383e+002
2.193051e+002,6.180541e+002
2.202693e+002,6.155188e+002
2.212335e+002,6.134656e+002
2.221978e+002,6.117615e+002
2.231620e+002,6.105743e+002
2.241262e+002,6.122289e+002
2.250904e+002,6.147471e+002
2.260547e+002,6.151438e+002
2.270189e+002,6.128933e+002
2.279831e+002,6.089555e+002
2.289474e+002,6.082314e+002
2.299116e+002,6.106582e+002
2.308758e+002,6.123079e+002
2.318401e+002,6.117249e+002
2.328043e+002,6.089980e+002
2.337685e+002,6.088965e+002
2.347328e+002,6.110209e+002
2.356970e+002,6.119840e+002
2.366612e+002,6.105387e+002
2.376255e+002,6.066949e+002
2.385897e+002,6.036849e+002
2.395539e+002,6.030828e+002
2.405182e+002,6.032756e+002
2.414824e+002,6.033586e+002
2.424466e+002,6.027910e+002
2.434109e+002,6.020413e+002
2.443751e+002,6.009542e+002
2.453393e+002,5.994799e+002
2.463036e+002,5.980266e+002
2.472678e+002,5.972435e+002
2.482320e+002,5.977677e+002
2.491963e+002,5.972251e+002
2.501605e+002,5.944360e+002
2.511247e+002,5.913163e+002
2.520890e+002,5.912176e+002
2.530532e+002,5.976046e+002
2.540174e+002,6.022671e+002
2.549817e+002,6.058462e+002
2.559459e+002,6.085192e+002
2.569102e+002,6.100257e+002
2.578744e+002,6.068925e+002
2.588386e+002,6.021755e+002
2.598029e+002,5.977556e+002
2.607671e+002,5.947047e+002
2.617313e+002,5.939290e+002
2.626956e+002,5.977379e+002
2.636598e+002,6.040103e+002
2.646240e+002,6.089442e+002
2.655883e+002,6.112787e+002
2.665525e+002,6.111530e+002
2.675167e+002,6.119570e+002
2.684810e+002,6.159388e+002
2.694452e+002,6.179330e+002
2.704094e+002,6.150071e+002
2.713737e+002,6.068472e+002
2.723379e+002,6.020557e+002
2.733021e+002,6.016189e+002
2.742664e+002,6.021030e+002
2.752306e+002,6.039384e+002
2.761948e+002,6.073046e+002
2.771591e+002,6.088974e+002
2.781233e+002,6.044086e+002
2.790875e+002,5.993429e+002
2.800518e+002,5.971462e+002
2.810160e+002,5.994290e+002
2.819802e+002,6.039781e+002
2.829445e+002,6.046385e+002
2.839087e+002,6.025753e+002
2.848729e+002,5.997468e+002
2.858372e+002,5.976294e+002
2.868014e+002,5.964369e+002
2.877656e+002,5.962773e+002
2.887299e+002,5.953450e+002
2.896941e+002,5.946667e+002
2.906583e+002,5.961030e+002
2.916226e+002,6.026307e+002
2.925868e+002,6.067727e+002
2.935510e+002,6.055487e+002
2.945153e+002,6.025024e+002
2.954795e+002,6.006995e+002
2.964437e+002,6.021854e+002
2.974080e+002,6.035403e+002
2.983722e+002,6.019813e+002
2.993364e+002,5.992029e+002
3.003007e+002,5.973536e+002
3.012649e+002,5.988019e+002
3.022291e+002,6.030739e+002
3.031934e+002,6.043984e+002
3.041576e+002,6.026110e+002
3.051218e+002,5.994724e+002
3.060861e+002,5.976194e+002
3.070503e+002,5.967229e+002
3.080145e+002,5.947604e+002
3.089788e+002,5.921824e+002
3.099430e+002,5.901373e+002
3.109072e+002,5.900986e+002
3.118715e+002,5.943242e+002
3.128357e+002,5.996138e+002
3.137999e+002,6.039992e+002
3.147642e+002,6.062688e+002
3.157284e+002,6.055514e+002
3.166926e+002,6.009950e+002
3.176569e+002,5.959662e+002
3.186211e+002,5.933129e+002
3.195853e+002,5.930463e+002
3.205496e+002,5.945499e+002
3.215138e+002,5.968924e+002
3.224780e+002,6.000761e+002
3.234423e+002,6.020514e+002
3.244065e+002,6.025839e+002
3.253707e+002,6.020308e+002
3.263350e+002,6.013119e+002
3.272992e+002,6.012824e+002
3.282634e+002,6.018703e+002
3.292277e+002,6.025195e+002
3.301919e+002,6.033143e+002
3.311561e+002,6.049059e+002
3.321204e+002,6.091775e+002
3.330846e+002,6.124407e+002
3.340488e+002,6.122654e+002
3.350131e+002,6.087216e+002
3.359773e+002,6.034963e+002
3.369415e+002,6.004962e+002
3.379058e+002,5.998043e+002
3.388700e+002,5.991542e+002
3.398342e+002,5.979691e+002
3.407985e+002,5.966046e+002
3.417627e+002,5.971912e+002
3.427269e+002,6.014103e+002
3.436912e+002,6.028594e+002
3.446554e+002,5.993716e+002
3.456196e+002,5.921621e+002
3.465839e+002,5.873256e+002
3.475481e+002,5.892028e+002
3.485123e+002,5.929272e+002
3.494765e+002,5.968359e+002
3.504408e+002,5.999379e+002
3.514050e+002,6.020453e+002
3.523692e+002,6.049041e+002
3.533335e+002,6.074125e+002
3.542977e+002,6.072286e+002
3.552619e+002,6.041061e+002
3.562262e+002,5.994527e+002
3.571904e+002,5.982615e+002
3.581546e+002,6.001196e+002
3.591189e+002,6.019369e+002
3.600831e+002,6.025356e+002
3.610473e+002,6.017511e+002
3.620116e+002,6.009574e+002
3.629758e+002,6.018499e+002
3.639400e+002,6.028100e+002
3.649043e+002,6.036367e+002
3.658685e+002,6.040915e+002
3.668327e+002,6.037324e+002
3.677970e+002,6.008599e+002
3.687612e+002,5.986128e+002
3.697254e+002,5.990009e+002
3.706897e+002,6.020491e+002
3.716539e+002,6.058953e+002
3.726181e+002,6.052131e+002
3.735824e+002,6.005431e+002
3.745466e+002,5.965593e+002
3.755108e+002,5.952357e+002
3.764751e+002,5.967485e+002
3.774393e+002,5.979427e+002
3.784035e+002,5.981324e+002
3.793678e+002,5.975841e+002
3.803320e+002,5.962759e+002
3.812962e+002,5.946471e+002
3.822605e+002,5.939385e+002
3.832247e+002,5.947068e+002
3.841889e+002,5.959783e+002
3.851532e+002,5.976079e+002
3.861174e+002,5.992913e+002
3.870816e+002,6.006337e+002
3.880459e+002,6.010920e+002
3.890101e+002,6.010069e+002
3.899743e+002,6.010625e+002
3.909386e+002,6.016258e+002
3.919028e+002,6.027090e+002
3.928670e+002,6.033174e+002
3.938313e+002,6.020521e+002
3.947955e+002,5.999395e+002
3.957597e+002,5.969772e+002
3.967240e+002,5.937219e+002
3.976882e+002,5.916758e+002
3.986524e+002,5.927360e+002
3.996167e+002,5.945699e+002
4.005809e+002,5.963586e+002
4.015451e+002,5.973937e+002
4.025094e+002,5.971608e+002
4.034736e+002,5.955759e+002
4.044378e+002,5.950927e+002
4.054021e+002,5.964446e+002
4.063663e+002,5.990353e+002
4.073305e+002,6.018892e+002
4.082948e+002,6.040748e+002
4.092590e+002,6.052274e+002
4.102232e+002,6.036723e+002
4.111875e+002,5.983187e+002
4.121517e+002,5.909796e+002
4.131159e+002,5.864204e+002
4.140802e+002,5.900977e+002
4.150444e+002,5.942650e+002
4.160086e+002,5.972449e+002
4.169729e+002,5.999921e+002
4.179371e+002,6.044124e+002
4.189013e+002,6.116284e+002
4.198656e+002,6.146285e+002
4.208298e+002,6.112114e+002
4.217940e+002,6.042042e+002
4.227583e+002,5.974763e+002
4.237225e+002,5.948628e+002
4.246867e+002,5.967820e+002
4.256510e+002,5.986597e+002
4.266152e+002,5.997064e+002
4.275794e+002,6.002119e+002
4.285437e+002,6.010942e+002
4.295079e+002,6.030431e+002
4.304721e+002,6.033441e+002
4.314364e+002,6.018756e+002
4.324006e+002,6.007735e+002
4.333648e+002,6.019786e+002
4.343291e+002,6.061642e+002
4.352933e+002,6.069909e+002
4.362575e+002,6.020208e+002
4.372218e+002,5.956313e+002
4.381860e+002,5.913928e+002
4.391502e+002,5.912769e+002
4.401145e+002,5.927581e+002
4.410787e+002,5.933712e+002
4.420429e+002,5.942176e+002
4.430072e+002,5.957850e+002
4.439714e+002,5.979445e+002
4.449356e+002,5.996137e+002
4.458999e+002,5.992822e+002
4.468641e+002,5.976013e+002
4.478283e+002,5.957502e+002
4.487926e+002,5.947841e+002
4.497568e+002,5.954630e+002
4.507210e+002,5.981379e+002
4.516853e+002,6.012770e+002
4.526495e+002,6.031362e+002
4.536137e+002,6.039413e+002
4.545780e+002,6.039730e+002
4.555422e+002,6.026091e+002
4.565064e+002,5.973937e+002
4.574707e+002,5.932432e+002
4.584349e+002,5.927628e+002
4.593991e+002,5.956124e+002
4.603634e+002,5.991208e+002
4.613276e+002,5.985424e+002
4.622918e+002,5.951904e+002
4.632561e+002,5.927487e+002
4.642203e+002,5.921149e+002
4.651845e+002,5.929283e+002
4.661488e+002,5.937341e+002
4.671130e+002,5.936175e+002
4.680772e+002,5.923987e+002
4.690415e+002,5.905540e+002
4.700057e+002,5.886935e+002
4.709699e+002,5.873612e+002
4.719342e+002,5.866115e+002
4.728984e+002,5.855194e+002
4.738626e+002,5.831996e+002
4.748269e+002,5.801111e+002
4.757911e+002,5.771157e+002
4.767553e+002,5.752333e+002
4.777196e+002,5.753292e+002
4.786838e+002,5.771099e+002
4.796480e+002,5.792267e+002
4.806123e+002,5.796022e+002
4.815765e+002,5.764891e+002
4.825407e+002,5.697617e+002
4.835050e+002,5.667686e+002
4.844692e+002,5.694289e+002
4.854334e+002,5.733998e+002
4.863977e+002,5.748005e+002
4.873619e+002,5.715781e+002
4.883261e+002,5.666313e+002
4.892904e+002,5.637118e+002
4.902546e+002,5.629089e+002
4.912188e+002,5.635642e+002
4.921831e+002,5.647338e+002
4.931473e+002,5.654980e+002
4.941115e+002,5.660275e+002
4.950758e+002,5.660117e+002
4.960400e+002,5.641097e+002
4.970042e+002,5.603457e+002
4.979685e+002,5.562916e+002
4.989327e+002,5.567769e+002
4.998969e+002,5.624094e+002
5.008612e+002,5.656830e+002
5.018254e+002,5.644840e+002
5.027896e+002,5.597990e+002
5.037539e+002,5.550555e+002
5.047181e+002,5.524379e+002
5.056823e+002,5.511880e+002
5.066466e+002,5.506113e+002
5.076108e+002,5.509881e+002
5.085750e+002,5.526455e+002
5.095393e+002,5.554016e+002
5.105035e+002,5.578635e+002
5.114677e+002,5.617303e+002
5.124320e+002,5.666101e+002
5.133962e+002,5.701076e+002
5.143605e+002,5.693019e+002
5.153247e+002,5.630164e+002
5.162889e+002,5.578912e+002
5.172532e+002,5.542704e+002
5.182174e+002,5.534188e+002
5.191816e+002,5.568964e+002
5.201459e+002,5.654000e+002
5.211101e+002,5.715023e+002
5.220743e+002,5.715478e+002
5.230386e+002,5.707809e+002
5.240028e+002,5.733857e+002
5.249670e+002,5.807388e+002
5.259313e+002,5.898439e+002
5.268955e+002,5.942831e+002
5.278597e+002,5.960353e+002
5.288240e+002,5.970759e+002
5.297882e+002,5.982413e+002
5.307524e+002,5.998844e+002
5.317167e+002,6.027024e+002
5.326809e+002,6.088140e+002
5.336451e+002,6.166790e+002
5.346094e+002,6.247070e+002
5.355736e+002,6.310789e+002
5.365378e+002,6.343131e+002
5.375021e+002,6.348875e+002
5.384663e+002,6.373845e+002
5.394305e+002,6.427667e+002
5.403948e+002,6.488966e+002
5.413590e+002,6.532195e+002
5.423232e+002,6.537395e+002
5.432875e+002,6.520118e+002
5.442517e+002,6.515933e+002
5.452159e+002,6.539793e+002
5.461802e+002,6.592006e+002
5.471444e+002,6.659738e+002
5.481086e+002,6.717546e+002
5.490729e+002,6.738342e+002
5.500371e+002,6.753215e+002
5.510013e+002,6.769279e+002
5.519656e+002,6.785536e+002
5.529298e+002,6.802138e+002
5.538940e+002,6.829470e+002
5.548583e+002,6.855910e+002
5.558225e+002,6.851952e+002
5.567867e+002,6.818007e+002
5.577510e+002,6.764343e+002
5.587152e+002,6.705078e+002
5.596794e+002,6.648845e+002
5.606437e+002,6.611530e+002
5.616079e+002,6.589062e+002
5.625721e+002,6.575085e+002
5.635364e+002,6.563352e+002
5.645006e+002,6.547999e+002
5.654648e+002,6.520305e+002
5.664291e+002,6.479673e+002
5.673933e+002,6.453290e+002
5.683575e+002,6.448299e+002
5.693218e+002,6.451754e+002
5.702860e+002,6.438497e+002
5.712502e+002,6.413260e+002
5.722145e+002,6.395051e+002
5.731787e+002,6.355727e+002
5.741429e+002,6.293506e+002
5.751072e+002,6.222729e+002
5.760714e+002,6.169707e+002
5.770356e+002,6.158988e+002
5.779999e+002,6.160568e+002
5.789641e+002,6.132128e+002
5.799283e+002,6.078007e+002
5.808926e+002,6.026347e+002
5.818568e+002,6.015853e+002
5.828210e+002,6.034000e+002
5.837853e+002,6.024874e+002
5.847495e+002,5.998116e+002
5.857137e+002,5.961393e+002
5.866780e+002,5.916483e+002
5.876422e+002,5.856129e+002
5.886064e+002,5.810939e+002
5.895707e+002,5.788033e+002
5.905349e+002,5.775261e+002
5.914991e+002,5.760694e+002
5.924634e+002,5.738406e+002
5.934276e+002,5.714538e+002
5.943918e+002,5.713383e+002
5.953560e+002,5.713303e+002
5.963203e+002,5.696879e+002
5.972845e+002,5.660372e+002
5.982487e+002,5.610991e+002
5.992130e+002,5.564709e+002
6.001772e+002,5.540818e+002
6.011414e+002,5.521992e+002
6.021057e+002,5.482344e+002
6.030699e+002,5.425519e+002
6.040341e+002,5.375787e+002
6.049984e+002,5.368556e+002
6.059626e+002,5.311705e+002
6.069268e+002,5.187289e+002
6.078911e+002,5.087539e+002
6.088553e+002,5.061675e+002
6.098195e+002,5.101575e+002
6.107838e+002,5.125811e+002
6.117480e+002,5.083604e+002
6.127122e+002,5.037836e+002
6.136765e+002,5.013312e+002
6.146407e+002,5.002549e+002
6.156049e+002,4.978657e+002
6.165692e+002,4.910374e+002
6.175334e+002,4.809320e+002
6.184976e+002,4.734908e+002
6.194619e+002,4.698594e+002
6.204261e+002,4.683954e+002
6.213903e+002,4.663976e+002
6.223546e+002,4.621798e+002
6.233188e+002,4.588754e+002
6.242830e+002,4.563835e+002
6.252473e+002,4.538256e+002
6.262115e+002,4.515425e+002
6.271757e+002,4.498121e+002
6.281400e+002,4.473586e+002
6.291042e+002,4.419202e+002
6.300684e+002,4.363967e+002
6.310327e+002,4.319534e+002
6.319969e+002,4.289368e+002
6.329611e+002,4.272563e+002
6.339254e+002,4.267858e+002
6.348896e+002,4.261844e+002
6.358538e+002,4.235109e+002
6.368181e+002,4.196348e+002
6.377823e+002,4.149857e+002
6.387465e+002,4.090654e+002
6.397108e+002,4.003278e+002
6.406750e+002,3.967401e+002
6.416392e+002,4.004255e+002
6.426035e+002,4.031909e+002
6.435677e+002,4.007169e+002
6.445319e+002,3.935519e+002
6.454962e+002,3.875376e+002
6.464604e+002,3.895095e+002
6.474246e+002,3.925966e+002
6.483889e+002,3.907650e+002
6.493531e+002,3.839796e+002
6.503173e+002,3.754872e+002
6.512816e+002,3.699340e+002
6.522458e+002,3.679089e+002
6.532100e+002,3.642820e+002
6.541743e+002,3.591900e+002
6.551385e+002,3.551196e+002
6.561027e+002,3.541556e+002
6.570670e+002,3.563661e+002
6.580312e+002,3.561552e+002
6.589954e+002,3.495584e+002
6.599597e+002,3.420673e+002
6.609239e+002,3.373115e+002
6.618881e+002,3.356729e+002
6.628524e+002,3.347172e+002
6.638166e+002,3.319213e+002
6.647808e+002,3.293269e+002
6.657451e+002,3.274731e+002
6.667093e+002,3.259398e+002
6.676735e+002,3.249617e+002
6.686378e+002,3.251069e+002
6.696020e+002,3.263329e+002
6.705662e+002,3.249938e+002
6.715305e+002,3.209416e+002
6.724947e+002,3.153060e+002
6.734589e+002,3.084362e+002
6.744232e+002,3.013782e+002
6.753874e+002,2.977920e+002
6.763516e+002,2.999449e+002
6.773159e+002,3.030591e+002
6.782801e+002,3.062227e+002
6.792443e+002,3.081684e+002
6.802086e+002,3.074929e+002
6.811728e+002,3.031116e+002
6.821370e+002,2.970781e+002
6.831013e+002,2.942417e+002
6.840655e+002,2.938138e+002
6.850297e+002,2.924684e+002
6.859940e+002,2.877217e+002
6.869582e+002,2.800054e+002
6.879224e+002,2.758904e+002
6.888867e+002,2.776971e+002
6.898509e+002,2.767662e+002
6.908151e+002,2.706238e+002
6.917794e+002,2.622893e+002
6.927436e+002,2.573315e+002
6.937078e+002,2.573396e+002
6.946721e+002,2.581841e+002
6.956363e+002,2.601154e+002
6.966005e+002,2.622222e+002
6.975648e+002,2.623927e+002
6.985290e+002,2.591787e+002
6.994932e+002,2.538945e+002
7.004575e+002,2.517128e+002
7.014217e+002,2.511068e+002
7.023859e+002,2.481589e+002
7.033502e+002,2.421757e+002
7.043144e+002,2.356998e+002
7.052786e+002,2.335369e+002
7.062429e+002,2.371235e+002
7.072071e+002,2.387330e+002
7.081713e+002,2.394709e+002
7.091356e+002,2.396686e+002
7.100998e+002,2.386595e+002
7.110640e+002,2.355724e+002
7.120283e+002,2.317751e+002
7.129925e+002,2.271226e+002
7.139567e+002,2.232222e+002
7.149210e+002,2.219735e+002
7.158852e+002,2.228268e+002
7.168494e+002,2.235093e+002
7.178137e+002,2.213966e+002
7.187779e+002,2.172820e+002
7.197421e+002,2.128793e+002
7.207064e+002,2.072509e+002
7.216706e+002,2.032839e+002
7.226348e+002,2.053136e+002
7.235991e+002,2.157227e+002
7.245633e+002,2.221493e+002
7.255275e+002,2.199257e+002
7.264918e+002,2.158242e+002
7.274560e+002,2.117197e+002
7.284202e+002,2.088757e+002
7.293845e+002,2.089019e+002
7.303487e+002,2.147256e+002
7.313129e+002,2.183490e+002
7.322772e+002,2.109785e+002
7.332414e+002,1.983065e+002
7.342056e+002,1.897788e+002
7.351699e+002,1.916302e+002
7.361341e+002,2.013180e+002
7.370983e+002,2.048810e+002
7.380626e+002,1.997429e+002
7.390268e+002,1.945326e+002
7.399910e+002,1.927441e+002
7.409553e+002,1.942133e+002
7.419195e+002,1.966155e+002
7.428837e+002,1.992552e+002
7.438480e+002,1.992855e+002
7.448122e+002,1.979957e+002
7.457764e+002,1.966609e+002
7.467407e+002,1.950381e+002
7.477049e+002,1.933756e+002
7.486691e+002,1.944622e+002
7.496334e+002,2.032157e+002
7.505976e+002,2.124116e+002
7.515618e+002,2.146157e+002
7.525261e+002,2.095739e+002
7.534903e+002,2.022773e+002
7.544545e+002,1.998619e+002
7.554188e+002,2.053552e+002
7.563830e+002,2.102083e+002
7.573472e+002,2.116119e+002
7.583115e+002,2.103010e+002
7.592757e+002,2.064181e+002
7.602399e+002,2.019277e+002
7.612042e+002,2.027095e+002
7.621684e+002,2.145338e+002
7.631326e+002,2.237611e+002
7.640969e+002,2.237417e+002
7.650611e+002,2.180760e+002
7.660253e+002,2.135018e+002
7.669896e+002,2.153218e+002
7.679538e+002,2.225066e+002
7.689180e+002,2.283801e+002
7.698823e+002,2.302002e+002
7.708465e+002,2.276997e+002
7.718107e+002,2.217626e+002
7.727750e+002,2.148544e+002
7.737392e+002,2.107736e+002
7.747034e+002,2.106617e+002
7.756677e+002,2.120712e+002
7.766319e+002,2.150227e+002
7.775961e+002,2.174651e+002
7.785604e+002,2.170948e+002
7.795246e+002,2.133796e+002
7.804888e+002,2.100394e+002
7.814531e+002,2.112014e+002
7.824173e+002,2.137202e+002
7.833815e+002,2.167379e+002
7.843458e+002,2.200769e+002
7.853100e+002,2.228918e+002
7.862742e+002,2.233362e+002
7.872385e+002,2.198870e+002
7.882027e+002,2.172456e+002
7.891669e+002,2.157883e+002
7.901312e+002,2.132858e+002
7.910954e+002,2.098716e+002
7.920596e+002,2.070500e+002
7.930239e+002,2.057159e+002
7.939881e+002,2.050747e+002
7.949523e+002,2.048204e+002
7.959166e+002,2.043271e+002
7.968808e+002,2.035979e+002
7.978450e+002,2.029113e+002
7.988093e+002,2.025350e+002
7.997735e+002,2.024360e+002
8.007377e+002,2.023356e+002
8.017020e+002,2.023517e+002
8.026662e+002,2.032043e+002
8.036304e+002,2.051072e+002
8.045947e+002,2.063229e+002
8.055589e+002,2.031545e+002
8.065231e+002,1.916177e+002
8.074874e+002,1.847532e+002
8.084516e+002,1.858556e+002
8.094158e+002,1.876272e+002
8.103801e+002,1.871025e+002
8.113443e+002,1.851487e+002
8.123085e+002,1.835482e+002
8.132728e+002,1.784860e+002
8.142370e+002,1.745764e+002
8.152012e+002,1.765094e+002
8.161655e+002,1.805066e+002
8.171297e+002,1.811820e+002
8.180939e+002,1.759730e+002
8.190582e+002,1.686548e+002
8.200224e+002,1.669215e+002
8.209866e+002,1.693735e+002
8.219509e+002,1.717059e+002
8.229151e+002,1.717472e+002
8.238793e+002,1.701138e+002
8.248436e+002,1.693202e+002
8.258078e+002,1.711443e+002
8.267720e+002,1.707035e+002
8.277363e+002,1.646156e+002
8.287005e+002,1.573074e+002
8.296647e+002,1.530151e+002
8.306290e+002,1.525918e+002
8.315932e+002,1.530786e+002
8.325574e+002,1.508088e+002
8.335217e+002,1.473771e+002
8.344859e+002,1.452960e+002
8.354501e+002,1.438593e+002
8.364144e+002,1.424315e+002
8.373786e+002,1.412064e+002
8.383428e+002,1.407556e+002
8.393071e+002,1.385696e+002
8.402713e+002,1.303201e+002
8.412355e+002,1.261738e+002
8.421998e+002,1.303481e+002
8.431640e+002,1.376288e+002
8.441282e+002,1.400568e+002
8.450925e+002,1.344885e+002
8.460567e+002,1.290238e+002
8.470209e+002,1.311592e+002
8.479852e+002,1.340333e+002
8.489494e+002,1.314542e+002
8.499136e+002,1.235911e+002
8.508779e+002,1.159066e+002
8.518421e+002,1.153619e+002
8.528063e+002,1.216527e+002
8.537706e+002,1.244701e+002
8.547348e+002,1.230649e+002
8.556990e+002,1.215345e+002
8.566633e+002,1.223130e+002
8.576275e+002,1.245365e+002
8.585917e+002,1.246622e+002
8.595560e+002,1.225449e+002
8.605202e+002,1.197017e+002
8.614844e+002,1.152930e+002
8.624487e+002,1.117361e+002
8.634129e+002,1.111223e+002
8.643771e+002,1.132522e+002
8.653414e+002,1.148799e+002
8.663056e+002,1.137811e+002
8.672698e+002,1.131348e+002
8.682341e+002,1.140817e+002
8.691983e+002,1.154404e+002
8.701625e+002,1.166564e+002
8.711268e+002,1.177756e+002
8.720910e+002,1.184801e+002
8.730552e+002,1.152832e+002
8.740195e+002,1.106901e+002
8.749837e+002,1.087955e+002
8.759479e+002,1.089257e+002
8.769122e+002,1.099850e+002
8.778764e+002,1.114020e+002
8.788406e+002,1.130076e+002
8.798049e+002,1.124221e+002
8.807691e+002,1.091967e+002
8.817333e+002,1.061809e+002
8.826976e+002,1.056415e+002
8.836618e+002,1.077407e+002
8.846260e+002,1.104873e+002
8.855903e+002,1.106608e+002
8.865545e+002,1.071794e+002
8.875187e+002,1.044784e+002
8.884830e+002,1.024668e+002
8.894472e+002,1.018330e+002
8.904114e+002,1.035084e+002
8.913757e+002,1.075233e+002
8.923399e+002,1.126691e+002
8.933041e+002,1.198201e+002
8.942684e+002,1.223003e+002
8.952326e+002,1.164003e+002
8.961968e+002,1.072343e+002
8.971611e+002,1.003669e+002
8.981253e+002,9.833044e+001
8.990895e+002,9.958167e+001
9.000538e+002,1.010461e+002
9.010180e+002,1.021274e+002
9.019822e+002,1.034813e+002
9.029465e+002,1.055334e+002
9.039107e+002,1.077349e+002
9.048749e+002,1.090641e+002
9.058392e+002,1.089938e+002
9.068034e+002,1.091106e+002
9.077676e+002,1.102921e+002
9.087319e+002,1.119614e+002
9.096961e+002,1.156744e+002
9.106603e+002,1.203643e+002
9.116246e+002,1.234720e+002
9.125888e+002,1.232472e+002
9.135530e+002,1.218331e+002
9.145173e+002,1.220210e+002
9.154815e+002,1.222202e+002
9.164457e+002,1.226771e+002
9.174100e+002,1.244990e+002
9.183742e+002,1.266813e+002
9.193384e+002,1.268389e+002
9.203027e+002,1.241855e+002
9.212669e+002,1.253424e+002
9.222311e+002,1.302595e+002
9.231954e+002,1.318617e+002
9.241596e+002,1.302656e+002
9.251238e+002,1.273435e+002
9.260881e+002,1.235389e+002
9.270523e+002,1.175087e+002
9.280165e+002,1.141842e+002
9.289808e+002,1.205157e+002
9.299450e+002,1.299135e+002
9.309092e+002,1.365610e+002
9.318735e+002,1.392192e+002
9.328377e+002,1.399099e+002
9.338019e+002,1.411915e+002
9.347662e+002,1.429819e+002
9.357304e+002,1.449994e+002
9.366946e+002,1.495739e+002
9.376589e+002,1.544073e+002
9.386231e+002,1.565653e+002
9.395873e+002,1.564884e+002
9.405516e+002,1.579055e+002
9.415158e+002,1.640015e+002
9.424800e+002,1.675377e+002
9.434443e+002,1.629453e+002
9.444085e+002,1.578019e+002
9.453727e+002,1.569838e+002
9.463370e+002,1.607379e+002
9.473012e+002,1.662732e+002
9.482654e+002,1.706958e+002
9.492297e+002,1.728396e+002
9.501939e+002,1.732532e+002
9.511581e+002,1.742990e+002
9.521224e+002,1.759756e+002
9.530866e+002,1.769561e+002
9.540508e+002,1.773240e+002
9.550151e+002,1.786165e+002
9.559793e+002,1.807529e+002
9.569435e+002,1.796367e+002
9.579078e+002,1.780071e+002
9.588720e+002,1.771511e+002
9.598362e+002,1.756008e+002
9.608005e+002,1.734558e+002
9.617647e+002,1.726144e+002
9.627289e+002,1.748477e+002
9.636932e+002,1.782543e+002
9.646574e+002,1.789070e+002
9.656216e+002,1.767013e+002
9.665859e+002,1.735798e+002
9.675501e+002,1.712853e+002
9.685143e+002,1.703679e+002
9.694786e+002,1.702455e+002
9.704428e+002,1.705598e+002
9.714070e+002,1.742865e+002
9.723713e+002,1.801083e+002
9.733355e+002,1.838361e+002
9.742997e+002,1.851387e+002
9.752640e+002,1.860966e+002
9.762282e+002,1.886113e+002
9.771924e+002,1.921409e+002
9.781567e+002,1.951923e+002
9.791209e+002,1.984646e+002
9.800851e+002,2.013984e+002
9.810494e+002,2.025881e+002
9.820136e+002,2.024133e+002
9.829778e+002,2.028011e+002
9.839421e+002,2.055208e+002
9.849063e+002,2.094658e+002
9.858705e+002,2.086241e+002
9.868348e+002,2.034026e+002
9.877990e+002,2.008341e+002
9.887632e+002,2.023672e+002
9.897275e+002,2.066469e+002
9.906917e+002,2.110735e+002
9.916559e+002,2.133123e+002
9.926202e+002,2.130031e+002
9.935844e+002,2.154718e+002
9.945486e+002,2.177179e+002
9.955129e+002,2.147545e+002
9.964771e+002,2.079355e+002
9.974413e+002,2.028156e+002
9.984056e+002,2.039208e+002
9.993698e+002,2.094712e+002
1.000334e+003,2.121351e+002
1.001298e+003,2.116658e+002
1.002263e+003,2.111824e+002
1.003227e+003,2.098025e+002
1.004191e+003,2.089503e+002
1.005155e+003,2.111677e+002
1.006119e+003,2.166835e+002
1.007084e+003,2.197063e+002
1.008048e+003,2.156205e+002
1.009012e+003,2.129036e+002
1.009976e+003,2.156582e+002
1.010941e+003,2.210093e+002
1.011905e+003,2.244496e+002
1.012869e+003,2.236195e+002
1.013833e+003,2.198843e+002
1.014798e+003,2.169022e+002
1.015762e+003,2.172600e+002
1.016726e+003,2.200907e+002
1.017690e+003,2.270519e+002
1.018654e+003,2.339836e+002
1.019619e+003,2.356554e+002
1.020583e+003,2.325840e+002
1.021547e+003,2.334601e+002
1.022511e+003,2.431505e+002
1.023476e+003,2.507805e+002
1.024440e+003,2.540535e+002
1.025404e+003,2.545105e+002
1.026368e+003,2.511964e+002
1.027333e+003,2.453320e+002
1.028297e+003,2.420292e+002
1.029261e+003,2.476035e+002
1.030225e+003,2.596730e+002
1.031190e+003,2.649321e+002
1.032154e+003,2.654910e+002
1.033118e+003,2.667726e+002
1.034082e+003,2.699064e+002
1.035047e+003,2.735278e+002
1.036011e+003,2.752477e+002
1.036975e+003,2.729271e+002
1.037939e+003,2.730701e+002
1.038903e+003,2.852939e+002
1.039868e+003,2.983500e+002
1.040832e+003,3.034601e+002
1.041796e+003,3.022181e+002
1.042760e+003,3.009800e+002
1.043725e+003,3.038914e+002
1.044689e+003,3.089709e+002
1.045653e+003,3.126489e+002
1.046617e+003,3.149010e+002
1.047582e+003,3.159465e+002
1.048546e+003,3.169806e+002
1.049510e+003,3.205730e+002
1.050474e+003,3.280286e+002
1.051438e+003,3.379663e+002
1.052403e+003,3.471636e+002
1.053367e+003,3.552449e+002
1.054331e+003,3.608152e+002
1.055295e+003,3.644297e+002
1.056260e+003,3.667327e+002
1.057224e+003,3.673389e+002
1.058188e+003,3.671929e+002
1.059152e+003,3.692472e+002
1.060117e+003,3.764849e+002
1.061081e+003,3.876361e+002
1.062045e+003,3.974543e+002
1.063009e+003,4.042953e+002
1.063974e+003,4.083110e+002
1.064938e+003,4.104752e+002
1.065902e+003,4.132661e+002
1.066866e+003,4.194547e+002
1.067830e+003,4.288102e+002
1.068795e+003,4.343958e+002
1.069759e+003,4.333240e+002
1.070723e+003,4.321893e+002
1.071687e+003,4.355366e+002
1.072652e+003,4.424307e+002
1.073616e+003,4.487451e+002
1.074580e+003,4.512661e+002
1.075544e+003,4.508779e+002
1.076509e+003,4.505454e+002
1.077473e+003,4.515632e+002
1.078437e+003,4.565944e+002
1.079401e+003,4.673549e+002
1.080365e+003,4.788018e+002
1.081330e+003,4.863049e+002
1.082294e+003,4.898738e+002
1.083258e+003,4.930304e+002
1.084222e+003,4.971744e+002
1.085187e+003,4.993645e+002
1.086151e+003,4.969353e+002
1.087115e+003,4.950491e+002
1.088079e+003,4.979564e+002
1.089043e+003,5.046237e+002
1.090008e+003,5.107764e+002
1.090972e+003,5.134695e+002
1.091936e+003,5.136902e+002
1.092900e+003,5.134478e+002
1.093865e+003,5.126482e+002
1.094829e+003,5.114485e+002
1.095793e+003,5.108662e+002
1.096757e+003,5.107181e+002
1.097722e+003,5.090732e+002
1.098686e+003,5.044437e+002
1.099650e+003,4.997441e+002
1.100614e+003,4.985389e+002
1.101578e+003,4.989775e+002
1.102543e+003,5.006530e+002
1.103507e+003,5.019688e+002
1.104471e+003,5.002540e+002
1.105435e+003,4.941886e+002
1.106400e+003,4.850360e+002
1.107364e+003,4.758042e+002
1.108328e+003,4.682579e+002
1.109292e+003,4.619517e+002
1.110257e+003,4.574978e+002
1.111221e+003,4.548107e+002
1.112185e+003,4.513120e+002
1.113149e+003,4.465513e+002
1.114114e+003,4.428911e+002
1.115078e+003,4.420178e+002
1.116042e+003,4.384542e+002
1.117006e+003,4.276223e+002
1.117970e+003,4.188562e+002
1.118935e+003,4.150205e+002
1.119899e+003,4.130261e+002
1.120863e+003,4.108890e+002
1.121827e+003,4.083369e+002
1.122792e+003,4.049515e+002
1.123756e+003,3.985688e+002
1.124720e+003,3.877095e+002
1.125684e+003,3.775016e+002
1.126649e+003,3.714271e+002
1.127613e+003,3.651964e+002
1.128577e+003,3.548356e+002
1.129541e+003,3.432947e+002
1.130505e+003,3.360962e+002
1.131470e+003,3.334808e+002
1.132434e+003,3.287493e+002
1.133398e+003,3.181565e+002
1.134362e+003,3.098413e+002
1.135327e+003,3.083254e+002
1.136291e+003,3.095083e+002
1.137255e+003,3.078024e+002
1.138219e+003,3.015863e+002
1.139184e+003,2.939103e+002
1.140148e+003,2.883137e+002
1.141112e+003,2.831614e+002
1.142076e+003,2.750151e+002
1.143041e+003,2.650500e+002
1.144005e+003,2.574968e+002
1.144969e+003,2.546665e+002
1.145933e+003,2.545050e+002
1.146897e+003,2.540784e+002
1.147862e+003,2.522964e+002
1.148826e+003,2.469861e+002
1.149790e+003,2.354498e+002
1.150754e+003,2.242981e+002
1.151719e+003,2.166655e+002
1.152683e+003,2.124131e+002
1.153647e+003,2.119236e+002
1.154611e+003,2.148400e+002
1.155576e+003,2.179587e+002
1.156540e+003,2.156305e+002
1.157504e+003,2.054478e+002
1.158468e+003,1.968149e+002
1.159432e+003,1.933118e+002
1.160397e+003,1.899026e+002
1.161361e+003,1.867999e+002
1.162325e+003,1.846749e+002
1.163289e+003,1.833407e+002
1.164254e+003,1.815876e+002
1.165218e+003,1.776000e+002
1.166182e+003,1.701824e+002
1.167146e+003,1.628499e+002
1.168111e+003,1.577605e+002
1.169075e+003,1.537640e+002
1.170039e+003,1.492825e+002
1.171003e+003,1.439918e+002
1.171968e+003,1.393553e+002
1.172932e+003,1.377104e+002
1.173896e+003,1.398624e+002
1.174860e+003,1.413925e+002
1.175824e+003,1.403938e+002
1.176789e+003,1.384563e+002
1.177753e+003,1.358392e+002
1.178717e+003,1.334186e+002
1.179681e+003,1.320013e+002
1.180646e+003,1.312183e+002
1.181610e+003,1.296213e+002
1.182574e+003,1.264701e+002
1.183538e+003,1.222440e+002
1.184503e+003,1.165844e+002
1.185467e+003,1.109329e+002
1.186431e+003,1.081558e+002
1.187395e+003,1.081283e+002
1.188359e+003,1.073038e+002
1.189324e+003,1.029510e+002
1.190288e+003,9.652966e+001
1.191252e+003,9.151672e+001
1.192216e+003,8.711609e+001
1.193181e+003,8.349500e+001
1.194145e+003,7.857373e+001
1.195109e+003,7.380383e+001
1.196073e+003,7.257239e+001
1.197038e+003,7.440894e+001
1.198002e+003,7.588550e+001
1.198966e+003,7.473706e+001
1.199930e+003,7.227710e+001
1.200895e+003,6.999316e+001
1.201859e+003,6.847034e+001
1.202823e+003,7.053235e+001
1.203787e+003,7.687390e+001
1.204751e+003,8.021838e+001
1.205716e+003,7.396741e+001
1.206680e+003,6.179297e+001
1.207644e+003,5.373755e+001
1.208608e+003,5.015564e+001
1.209573e+003,4.767334e+001
1.210537e+003,4.997424e+001
1.211501e+003,5.189307e+001
1.212465e+003,4.918066e+001
1.213430e+003,4.543518e+001
1.214394e+003,4.494788e+001
1.215358e+003,4.760156e+001
1.216322e+003,4.968799e+001
1.217286e+003,4.892090e+001
1.218251e+003,4.656580e+001
1.219215e+003,4.276477e+001
1.220179e+003,3.846716e+001
1.221143e+003,3.538892e+001
1.222108e+003,3.232959e+001
1.223072e+003,3.165491e+001
1.224036e+003,3.620129e+001
1.225000e+003,4.417664e+001
1.225965e+003,4.908777e+001
1.226929e+003,4.863208e+001
1.227893e+003,4.338733e+001
1.228857e+003,3.711047e+001
1.229822e+003,3.278296e+001
1.230786e+003,2.966882e+001
1.231750e+003,2.683838e+001
1.232714e+003,2.514429e+001
1.233678e+003,2.571948e+001
1.234643e+003,2.757239e+001
1.235607e+003,2.822705e+001
1.236571e+003,3.040149e+001
1.237535e+003,3.155591e+001
1.238500e+003,2.752722e+001
1.239464e+003,2.464478e+001
1.240428e+003,2.692603e+001
1.241392e+003,3.033228e+001
1.242357e+003,2.887463e+001
1.243321e+003,2.238904e+001
1.244285e+003,1.732617e+001
1.245249e+003,1.824939e+001
1.246214e+003,2.292236e+001
1.247178e+003,2.656018e+001
1.248142e+003,2.764148e+001
1.249106e+003,2.520337e+001
1.250070e+003,1.901868e+001
1.251035e+003,1.360815e+001
1.251999e+003,1.627649e+001
1.252963e+003,2.742688e+001
1.253927e+003,3.210425e+001
1.254892e+003,2.478003e+001
1.255856e+003,1.990479e+001
1.256820e+003,2.124573e+001
1.257784e+003,2.419641e+001
1.258749e+003,2.536792e+001
1.259713e+003,2.484839e+001
1.260677e+003,2.453552e+001
1.261641e+003,2.544434e+001
1.262605e+003,2.669922e+001
1.263570e+003,2.716541e+001
1.264534e+003,2.719690e+001
1.265498e+003,2.715271e+001
1.266462e+003,2.749158e+001
1.267427e+003,2.779260e+001
1.268391e+003,2.602490e+001
1.269355e+003,2.258545e+001
1.270319e+003,2.063513e+001
1.271284e+003,2.157666e+001
1.272248e+003,2.065820e+001
1.273212e+003,1.564343e+001
1.274176e+003,1.278064e+001
1.275141e+003,1.158521e+001
1.276105e+003,9.767822e+000
1.277069e+003,7.692383e+000
1.278033e+003,6.618286e+000
1.278997e+003,7.375854e+000
1.279962e+003,1.096619e+001
1.280926e+003,1.837122e+001
1.281890e+003,2.694458e+001
1.282854e+003,3.192859e+001
1.283819e+003,3.329163e+001
1.284783e+003,3.484460e+001
1.285747e+003,3.301404e+001
1.286711e+003,2.419751e+001
1.287676e+003,1.414587e+001
1.288640e+003,1.068030e+001
1.289604e+003,1.458130e+001
1.290568e+003,1.948010e+001
1.291532e+003,2.048560e+001
1.292497e+003,1.911633e+001
1.293461e+003,2.021973e+001
1.294425e+003,2.402039e+001
1.295389e+003,2.623108e+001
1.296354e+003,2.408972e+001
1.297318e+003,2.102905e+001
1.298282e+003,2.169604e+001
1.299246e+003,2.498364e+001
1.300211e+003,2.449988e+001
1.301175e+003,2.001123e+001
1.302139e+003,1.655432e+001
1.303103e+003,1.159729e+001
1.304068e+003,7.298706e+000
1.305032e+003,6.726929e+000
1.305996e+003,8.921997e+000
1.306960e+003,1.225232e+001
1.307924e+003,1.631360e+001
1.308889e+003,2.053491e+001
1.309853e+003,2.212646e+001
1.310817e+003,1.839319e+001
1.311781e+003,1.597522e+001
1.312746e+003,2.460693e+001
1.313710e+003,3.061084e+001
1.314674e+003,2.801855e+001
1.315638e+003,2.427307e+001
1.316603e+003,2.399097e+001
1.317567e+003,2.450232e+001
1.318531e+003,2.149316e+001
1.319495e+003,1.608179e+001
1.320459e+003,1.465735e+001
1.321424e+003,2.069702e+001
1.322388e+003,2.822449e+001
1.323352e+003,3.117529e+001
1.324316e+003,3.015381e+001
1.325281e+003,2.710461e+001
1.326245e+003,2.205603e+001
1.327209e+003,1.749463e+001
1.328173e+003,1.824158e+001
1.329138e+003,2.417371e+001
1.330102e+003,2.507910e+001
1.331066e+003,1.809521e+001
1.332030e+003,1.410864e+001
1.332995e+003,1.429370e+001
1.333959e+003,1.589575e+001
1.334923e+003,1.863147e+001
1.335887e+003,2.100012e+001
1.336851e+003,2.140222e+001
1.337816e+003,2.007458e+001
1.338780e+003,1.860608e+001
1.339744e+003,1.718494e+001
1.340708e+003,1.429041e+001
1.341673e+003,1.339685e+001
1.342637e+003,1.815991e+001
1.343601e+003,1.810144e+001
1.344565e+003,8.247803e+000
1.345530e+003,0.000000e+000
1.346494e+003,2.448364e+000
1.347458e+003,1.227832e+001
1.348422e+003,2.018835e+001
1.349386e+003,2.265063e+001
1.350351e+003,2.188550e+001
1.351315e+003,2.027039e+001
1.352279e+003,1.953845e+001
1.353243e+003,2.153748e+001
1.354208e+003,2.581372e+001
1.355172e+003,2.887207e+001
1.356136e+003,2.804260e+001
1.357100e+003,2.486511e+001
1.358065e+003,2.176563e+001
1.359029e+003,1.963159e+001
1.359993e+003,2.061047e+001
1.360957e+003,2.792969e+001
1.361922e+003,3.231689e+001
1.362886e+003,2.787280e+001
1.363850e+003,2.326489e+001
1.364814e+003,2.160046e+001
1.365778e+003,2.131470e+001
1.366743e+003,2.070825e+001
1.367707e+003,1.953796e+001
1.368671e+003,1.891541e+001
1.369635e+003,2.050085e+001
1.370600e+003,2.467700e+001
1.371564e+003,2.736694e+001
1.372528e+003,2.540186e+001
1.373492e+003,2.433496e+001
1.374457e+003,2.387280e+001
1.375421e+003,2.255884e+001
1.376385e+003,2.036194e+001
1.377349e+003,1.856641e+001
1.378313e+003,1.773950e+001
1.379278e+003,1.759692e+001
1.380242e+003,1.898157e+001
1.381206e+003,2.405676e+001
1.382170e+003,3.009741e+001
1.383135e+003,3.005627e+001
1.384099e+003,2.655688e+001
1.385063e+003,2.719031e+001
1.386027e+003,3.118250e+001
1.386992e+003,3.280298e+001
1.387956e+003,2.986572e+001
1.388920e+003,2.610278e+001
1.389884e+003,2.714844e+001
1.390849e+003,3.349951e+001
1.391813e+003,3.659021e+001
1.392777e+003,2.847595e+001
1.393741e+003,1.909412e+001
1.394705e+003,1.820361e+001
1.395670e+003,2.230933e+001
1.396634e+003,2.670886e+001
1.397598e+003,2.843005e+001
1.398562e+003,2.586279e+001
1.399527e+003,1.973157e+001
1.400491e+003,1.383435e+001
1.401455e+003,1.254907e+001
1.402419e+003,1.578955e+001
1.403384e+003,1.896863e+001
1.404348e+003,2.008459e+001
1.405312e+003,1.749512e+001
1.406276e+003,1.294873e+001
1.407240e+003,1.348340e+001
1.408205e+003,2.206531e+001
1.409169e+003,3.201294e+001
1.410133e+003,3.429602e+001
1.411097e+003,2.715198e+001
1.412062e+003,1.748962e+001
1.413026e+003,1.295923e+001
1.413990e+003,1.478638e+001
1.414954e+003,1.952368e+001
1.415919e+003,2.549487e+001
1.416883e+003,3.006213e+001
1.417847e+003,3.090356e+001
1.418811e+003,3.036523e+001
1.419776e+003,3.056079e+001
1.420740e+003,3.101318e+001
1.421704e+003,3.072632e+001
1.422668e+003,3.005029e+001
1.423632e+003,2.957446e+001
1.424597e+003,2.870862e+001
1.425561e+003,2.851611e+001
1.426525e+003,3.250159e+001
1.427489e+003,3.751563e+001
1.428454e+003,3.741394e+001
1.429418e+003,3.220007e+001
1.430382e+003,2.804651e+001
1.431346e+003,2.680408e+001
1.432311e+003,2.627148e+001
1.433275e+003,2.711133e+001
1.434239e+003,3.203784e+001
1.435203e+003,3.708911e+001
1.436167e+003,3.944360e+001
1.437132e+003,3.923535e+001
1.438096e+003,3.379199e+001
1.439060e+003,2.706763e+001
1.440024e+003,2.309045e+001
1.440989e+003,2.279639e+001
1.441953e+003,2.510486e+001
1.442917e+003,2.804626e+001
1.443881e+003,2.951978e+001
1.444846e+003,2.899072e+001
1.445810e+003,2.878040e+001
1.446774e+003,3.242932e+001
1.447738e+003,4.090686e+001
1.448703e+003,4.322266e+001
1.449667e+003,3.548499e+001
1.450631e+003,2.858374e+001
1.451595e+003,2.668250e+001
1.452559e+003,2.787976e+001
1.453524e+003,2.942334e+001
1.454488e+003,3.103027e+001
1.455452e+003,3.448926e+001
1.456416e+003,4.018457e+001
1.457381e+003,4.479260e+001
1.458345e+003,4.437109e+001
1.459309e+003,3.914038e+001
1.460273e+003,3.458069e+001
1.461238e+003,3.422754e+001
1.462202e+003,3.382202e+001
1.463166e+003,3.011438e+001
1.464130e+003,2.827795e+001
1.465094e+003,3.018469e+001
1.466059e+003,3.245618e+001
1.467023e+003,3.313489e+001
1.467987e+003,3.319067e+001
1.468951e+003,3.205981e+001
1.469916e+003,2.938782e+001
1.470880e+003,2.986108e+001
1.471844e+003,3.768152e+001
1.472808e+003,4.597192e+001
1.473773e+003,4.583350e+001
1.474737e+003,3.826929e+001
1.475701e+003,3.280420e+001
1.476665e+003,3.539209e+001
1.477630e+003,4.220056e+001
1.478594e+003,4.706799e+001
1.479558e+003,4.883911e+001
1.480522e+003,5.032507e+001
1.481486e+003,5.406641e+001
1.482451e+003,5.470032e+001
1.483415e+003,4.540247e+001
1.484379e+003,3.625562e+001
1.485343e+003,3.736511e+001
1.486308e+003,4.441626e+001
1.487272e+003,4.851013e+001
1.488236e+003,4.771582e+001
1.489200e+003,4.682556e+001
1.490165e+003,4.931152e+001
1.491129e+003,5.246802e+001
1.492093e+003,5.156470e+001
1.493057e+003,4.726123e+001
1.494021e+003,4.396692e+001
1.494986e+003,4.178625e+001
1.495950e+003,4.267310e+001
1.496914e+003,4.762988e+001
1.497878e+003,5.190930e+001
1.498843e+003,5.237012e+001
1.499807e+003,5.103540e+001
1.500771e+003,5.150037e+001
1.501735e+003,5.447534e+001
1.502700e+003,5.733984e+001
1.503664e+003,5.734802e+001
1.504628e+003,5.486633e+001
1.505592e+003,5.314917e+001
1.506557e+003,5.401819e+001
1.507521e+003,5.686621e+001
1.508485e+003,6.265967e+001
1.509449e+003,6.605090e+001
1.510413e+003,6.400085e+001
1.511378e+003,5.981165e+001
1.512342e+003,5.604004e+001
1.513306e+003,5.386780e+001
1.514270e+003,5.413965e+001
1.515235e+003,5.634070e+001
1.516199e+003,5.813147e+001
1.517163e+003,5.777344e+001
1.518127e+003,5.640417e+001
1.519092e+003,5.559460e+001
1.520056e+003,5.427966e+001
1.521020e+003,5.340808e+001
1.521984e+003,5.269653e+001
1.522948e+003,5.242542e+001
1.523913e+003,5.527625e+001
1.524877e+003,5.940430e+001
1.525841e+003,6.175757e+001
1.526805e+003,6.237036e+001
1.527770e+003,6.242871e+001
1.528734e+003,6.134570e+001
1.529698e+003,5.783118e+001
1.530662e+003,5.210583e+001
1.531627e+003,4.661707e+001
1.532591e+003,4.544055e+001
1.533555e+003,4.942053e+001
1.534519e+003,5.034033e+001
1.535484e+003,4.455151e+001
1.536448e+003,4.206628e+001
1.537412e+003,5.061963e+001
1.538376e+003,5.876611e+001
1.539340e+003,5.209363e+001
1.540305e+003,3.666150e+001
1.541269e+003,3.069409e+001
1.542233e+003,3.827759e+001
1.543197e+003,4.820093e+001
1.544162e+003,5.393323e+001
1.545126e+003,5.545276e+001
1.546090e+003,5.264185e+001
1.547054e+003,5.007690e+001
1.548019e+003,5.266699e+001
1.548983e+003,5.735144e+001
1.549947e+003,5.958459e+001
1.550911e+003,5.826074e+001
1.551875e+003,5.496265e+001
1.552840e+003,5.270459e+001
1.553804e+003,5.288354e+001
1.554768e+003,5.306116e+001
1.555732e+003,5.050977e+001
1.556697e+003,4.814453e+001
1.557661e+003,4.947986e+001
1.558625e+003,5.200464e+001
1.559589e+003,5.122388e+001
1.560554e+003,4.882703e+001
1.561518e+003,4.912512e+001
1.562482e+003,5.249695e+001
1.563446e+003,5.418909e+001
1.564411e+003,5.228088e+001
1.565375e+003,4.899487e+001
1.566339e+003,4.474512e+001
1.567303e+003,4.016260e+001
1.568267e+003,3.956348e+001
1.569232e+003,4.373242e+001
1.570196e+003,4.743530e+001
1.571160e+003,4.832275e+001
1.572124e+003,4.749780e+001
1.573089e+003,4.741711e+001
1.574053e+003,4.874146e+001
1.575017e+003,4.973230e+001
1.575981e+003,4.955286e+001
1.576946e+003,5.004004e+001
1.577910e+003,5.112097e+001
1.578874e+003,5.119861e+001
1.579838e+003,5.162756e+001
1.580802e+003,5.444226e+001
1.581767e+003,5.799683e+001
1.582731e+003,5.974658e+001
1.583695e+003,5.889978e+001
1.584659e+003,5.471497e+001
1.585624e+003,4.911902e+001
1.586588e+003,4.373511e+001
1.587552e+003,4.287842e+001
1.588516e+003,5.209473e+001
1.589481e+003,6.760999e+001
1.590445e+003,7.650671e+001
1.591409e+003,7.289771e+001
1.592373e+003,6.532544e+001
1.593338e+003,6.283435e+001
1.594302e+003,6.407813e+001
1.595266e+003,6.397290e+001
1.596230e+003,6.270715e+001
1.597194e+003,6.108752e+001
1.598159e+003,5.724585e+001
1.599123e+003,5.440857e+001
1.600087e+003,5.647876e+001
1.601051e+003,5.992285e+001
1.602016e+003,6.066333e+001
1.602980e+003,5.900476e+001
1.603944e+003,5.842139e+001
1.604908e+003,6.109753e+001
1.605873e+003,6.452075e+001
1.606837e+003,6.664587e+001
1.607801e+003,6.817773e+001
1.608765e+003,6.858765e+001
1.609729e+003,6.592090e+001
1.610694e+003,6.091113e+001
1.611658e+003,5.428320e+001
1.612622e+003,5.075195e+001
1.613586e+003,5.578345e+001
1.614551e+003,6.322168e+001
1.615515e+003,6.578076e+001
1.616479e+003,6.440527e+001
1.617443e+003,6.151428e+001
1.618408e+003,5.827319e+001
1.619372e+003,5.713770e+001
1.620336e+003,6.052100e+001
1.621300e+003,6.402710e+001
1.622265e+003,6.029480e+001
1.623229e+003,5.197229e+001
1.624193e+003,4.852039e+001
1.625157e+003,4.972827e+001
1.626121e+003,5.324890e+001
1.627086e+003,6.043579e+001
1.628050e+003,6.712305e+001
1.629014e+003,6.978833e+001
1.629978e+003,6.945129e+001
1.630943e+003,6.790491e+001
1.631907e+003,6.529468e+001
1.632871e+003,6.142041e+001
1.633835e+003,5.730408e+001
1.634800e+003,5.465173e+001
1.635764e+003,5.456421e+001
1.636728e+003,5.672021e+001
1.637692e+003,5.864282e+001
1.638656e+003,5.910413e+001
1.639621e+003,6.108643e+001
1.640585e+003,6.528186e+001
1.641549e+003,6.788953e+001
1.642513e+003,7.069592e+001
1.643478e+003,7.396338e+001
1.644442e+003,7.344531e+001
1.645406e+003,7.156982e+001
1.646370e+003,7.266748e+001
1.647335e+003,7.579114e+001
1.648299e+003,7.745557e+001
1.649263e+003,7.670068e+001
1.650227e+003,7.554834e+001
1.651192e+003,7.682544e+001
1.652156e+003,7.853064e+001
1.653120e+003,7.569360e+001
1.654084e+003,6.939917e+001
1.655048e+003,6.651892e+001
1.656013e+003,6.839697e+001
1.656977e+003,7.275122e+001
1.657941e+003,7.884290e+001
1.658905e+003,8.258203e+001
1.659870e+003,8.085364e+001
1.660834e+003,7.716467e+001
1.661798e+003,7.449255e+001
1.662762e+003,7.186841e+001
1.663727e+003,7.010071e+001
1.664691e+003,7.092212e+001
1.665655e+003,7.113489e+001
1.666619e+003,6.670361e+001
1.667583e+003,6.161804e+001
1.668548e+003,6.313416e+001
1.669512e+003,6.953699e+001
1.670476e+003,7.275110e+001
1.671440e+003,7.195935e+001
1.672405e+003,7.048999e+001
1.673369e+003,6.803833e+001
1.674333e+003,6.582507e+001
1.675297e+003,6.838086e+001
1.676262e+003,7.454041e+001
1.677226e+003,7.874243e+001
1.678190e+003,8.088940e+001
1.679154e+003,7.995251e+001
1.680119e+003,7.221667e+001
1.681083e+003,6.425793e+001
1.682047e+003,6.301123e+001
1.683011e+003,6.539697e+001
1.683975e+003,6.535022e+001
1.684940e+003,6.329016e+001
1.685904e+003,6.335388e+001
1.686868e+003,6.673462e+001
1.687832e+003,7.175171e+001
1.688797e+003,7.618689e+001
1.689761e+003,7.825598e+001
1.690725e+003,7.826758e+001
1.691689e+003,7.765222e+001
1.692654e+003,7.558337e+001
1.693618e+003,7.140527e+001
1.694582e+003,7.168237e+001
1.695546e+003,7.744788e+001
1.696510e+003,8.191699e+001
1.697475e+003,8.321484e+001
1.698439e+003,8.261438e+001
1.699403e+003,8.033801e+001
1.700367e+003,7.720166e+001
1.701332e+003,7.500964e+001
1.702296e+003,7.439014e+001
1.703260e+003,7.484192e+001
1.704224e+003,7.532324e+001
1.705189e+003,7.535828e+001
1.706153e+003,7.770837e+001
1.707117e+003,8.333826e+001
1.708081e+003,8.259863e+001
1.709046e+003,7.688843e+001
1.710010e+003,7.672217e+001
1.710974e+003,8.226416e+001
1.711938e+003,8.672766e+001
1.712902e+003,8.516138e+001
1.713867e+003,7.945752e+001
1.714831e+003,7.446228e+001
1.715795e+003,7.297681e+001
1.716759e+003,7.543494e+001
1.717724e+003,8.077246e+001
1.718688e+003,8.535059e+001
1.719652e+003,8.424988e+001
1.720616e+003,7.894128e+001
1.721581e+003,8.001599e+001
1.722545e+003,9.048047e+001
1.723509e+003,9.559583e+001
1.724473e+003,9.305176e+001
1.725438e+003,9.028955e+001
1.726402e+003,8.542139e+001
1.727366e+003,8.185559e+001
1.728330e+003,8.539001e+001
1.729294e+003,9.102673e+001
1.730259e+003,9.070972e+001
1.731223e+003,8.534790e+001
1.732187e+003,8.210498e+001
1.733151e+003,8.322046e+001
1.734116e+003,8.538354e+001
1.735080e+003,8.850610e+001
1.736044e+003,9.210376e+001
1.737008e+003,8.935791e+001
1.737973e+003,7.996802e+001
1.738937e+003,7.618750e+001
1.739901e+003,8.066846e+001
1.740865e+003,8.528772e+001
1.741829e+003,8.764221e+001
1.742794e+003,8.913660e+001
1.743758e+003,9.159863e+001
1.744722e+003,9.385510e+001
1.745686e+003,9.253638e+001
1.746651e+003,8.795691e+001
1.747615e+003,8.519165e+001
1.748579e+003,8.505627e+001
1.749543e+003,8.568616e+001
1.750508e+003,8.783716e+001
1.751472e+003,9.077832e+001
1.752436e+003,9.299353e+001
1.753400e+003,9.309729e+001
1.754365e+003,8.904065e+001
1.755329e+003,8.189087e+001
1.756293e+003,7.780225e+001
1.757257e+003,7.972925e+001
1.758221e+003,8.280322e+001
1.759186e+003,8.241406e+001
1.760150e+003,8.173840e+001
1.761114e+003,8.554089e+001
1.762078e+003,9.127710e+001
1.763043e+003,9.384033e+001
1.764007e+003,8.995801e+001
1.764971e+003,8.618884e+001
1.765935e+003,8.991272e+001
1.766900e+003,9.458936e+001
1.767864e+003,9.525928e+001
1.768828e+003,9.302246e+001
1.769792e+003,8.765979e+001
1.770756e+003,8.175037e+001
1.771721e+003,7.994116e+001
1.772685e+003,8.225952e+001
1.773649e+003,8.503394e+001
1.774613e+003,8.741748e+001
1.775578e+003,9.039722e+001
1.776542e+003,9.168396e+001
1.777506e+003,9.053674e+001
1.778470e+003,9.147424e+001
1.779435e+003,9.464539e+001
1.780399e+003,9.583362e+001
1.781363e+003,9.684912e+001
1.782327e+003,9.774683e+001
1.783292e+003,9.577271e+001
1.784256e+003,9.053418e+001
1.785220e+003,8.222192e+001
1.786184e+003,7.471155e+001
1.787148e+003,7.200208e+001
1.788113e+003,7.363867e+001
1.789077e+003,7.758362e+001
1.790041e+003,8.372302e+001
1.791005e+003,8.691431e+001
1.791970e+003,8.118286e+001
1.792934e+003,7.191199e+001
1.793898e+003,6.706555e+001
1.794862e+003,6.639490e+001
1.795827e+003,7.021558e+001
1.796791e+003,7.816797e+001
1.797755e+003,8.747034e+001
1.798719e+003,9.885864e+001
1.799683e+003,1.072313e+002
1.800648e+003,1.041624e+002
1.801612e+003,9.314209e+001
1.802576e+003,8.849182e+001
1.803540e+003,8.991199e+001
1.804505e+003,8.680920e+001
1.805469e+003,7.915771e+001
1.806433e+003,7.541174e+001
1.807397e+003,7.535999e+001
1.808362e+003,7.682507e+001
1.809326e+003,8.010425e+001
1.810290e+003,8.378088e+001
1.811254e+003,8.712097e+001
1.812219e+003,8.951367e+001
1.813183e+003,8.809497e+001
1.814147e+003,8.125647e+001
1.815111e+003,7.245996e+001
1.816075e+003,6.704663e+001
1.817040e+003,6.745300e+001
1.818004e+003,7.473010e+001
1.818968e+003,8.829639e+001
1.819932e+003,9.587878e+001
1.820897e+003,9.097864e+001
1.821861e+003,8.506226e+001
1.822825e+003,8.034509e+001
1.823789e+003,7.663733e+001
1.824754e+003,7.824475e+001
1.825718e+003,8.324524e+001
1.826682e+003,8.799829e+001
1.827646e+003,9.029443e+001
1.828610e+003,8.927576e+001
1.829575e+003,8.593286e+001
1.830539e+003,8.214294e+001
1.831503e+003,7.786377e+001
1.832467e+003,7.595288e+001
1.833432e+003,8.052087e+001
1.834396e+003,8.629626e+001
1.835360e+003,8.777014e+001
1.836324e+003,8.794458e+001
1.837289e+003,8.835498e+001
1.838253e+003,8.672937e+001
1.839217e+003,8.447888e+001
1.840181e+003,8.345715e+001
1.841146e+003,8.305115e+001
1.842110e+003,8.353577e+001
1.843074e+003,8.589551e+001
1.844038e+003,8.978845e+001
1.845002e+003,9.445386e+001
1.845967e+003,9.588232e+001
1.846931e+003,9.082983e+001
1.847895e+003,9.042688e+001
1.848859e+003,9.386584e+001
1.849824e+003,9.471790e+001
1.850788e+003,9.492419e+001
1.851752e+003,9.355872e+001
1.852716e+003,9.033789e+001
1.853681e+003,8.782764e+001
1.854645e+003,8.543848e+001
1.855609e+003,8.312061e+001
1.856573e+003,8.429346e+001
1.857537e+003,8.944373e+001
1.858502e+003,9.386609e+001
1.859466e+003,9.659863e+001
1.860430e+003,9.947412e+001
1.861394e+003,9.917749e+001
1.862359e+003,9.447327e+001
1.863323e+003,8.913293e+001
1.864287e+003,8.285718e+001
1.865251e+003,7.926111e+001
1.866216e+003,8.223657e+001
1.867180e+003,8.824377e+001
1.868144e+003,9.319958e+001
1.869108e+003,9.478125e+001
1.870073e+003,9.235815e+001
1.871037e+003,8.778027e+001
1.872001e+003,8.395215e+001
1.872965e+003,8.142188e+001
1.873929e+003,8.216467e+001
1.874894e+003,8.641260e+001
1.875858e+003,8.827332e+001
1.876822e+003,8.578882e+001
1.877786e+003,8.441724e+001
1.878751e+003,8.919421e+001
1.879715e+003,9.650159e+001
1.880679e+003,1.006113e+002
1.881643e+003,1.008202e+002
1.882608e+003,9.909363e+001
1.883572e+003,9.664209e+001
1.884536e+003,9.445776e+001
1.885500e+003,9.281799e+001
1.886464e+003,8.997412e+001
1.887429e+003,8.406213e+001
1.888393e+003,7.838013e+001
1.889357e+003,8.199255e+001
1.890321e+003,9.457349e+001
1.891286e+003,1.010781e+002
1.892250e+003,9.725195e+001
1.893214e+003,9.140051e+001
1.894178e+003,8.863196e+001
1.895143e+003,8.857471e+001
1.896107e+003,8.850000e+001
1.897071e+003,8.842285e+001
1.898035e+003,8.971252e+001
1.899000e+003,8.928723e+001
1.899964e+003,8.518848e+001
1.900928e+003,8.346826e+001
1.901892e+003,8.491699e+001
1.902856e+003,8.695740e+001
1.903821e+003,8.717261e+001
1.904785e+003,7.926318e+001
1.905749e+003,7.051465e+001
1.906713e+003,7.447131e+001
1.907678e+003,8.612280e+001
1.908642e+003,9.126904e+001
1.909606e+003,8.778503e+001
1.910570e+003,8.327869e+001
1.911535e+003,8.223767e+001
1.912499e+003,8.444299e+001
1.913463e+003,8.831653e+001
1.914427e+003,9.053540e+001
1.915391e+003,8.939380e+001
1.916356e+003,8.781714e+001
1.917320e+003,8.718799e+001
1.918284e+003,8.815137e+001
1.919248e+003,9.107410e+001
1.920213e+003,9.250476e+001
1.921177e+003,9.298389e+001
1.922141e+003,9.508850e+001
1.923105e+003,9.781482e+001
1.924070e+003,1.005189e+002
1.925034e+003,1.018738e+002
1.925998e+003,9.669055e+001
1.926962e+003,8.461804e+001
1.927927e+003,7.904211e+001
1.928891e+003,8.610059e+001
1.929855e+003,9.146387e+001
1.930819e+003,8.957581e+001
1.931783e+003,8.725916e+001
1.932748e+003,8.966101e+001
1.933712e+003,9.412622e+001
1.934676e+003,9.944067e+001
1.935640e+003,1.027792e+002
1.936605e+003,9.733411e+001
1.937569e+003,8.397998e+001
1.938533e+003,7.430261e+001
1.939497e+003,7.614832e+001
1.940462e+003,8.355176e+001
1.941426e+003,8.770630e+001
1.942390e+003,8.919482e+001
1.943354e+003,9.220496e+001
1.944318e+003,9.341943e+001
1.945283e+003,8.653333e+001
1.946247e+003,7.565210e+001
1.947211e+003,7.262415e+001
1.948175e+003,8.009326e+001
1.949140e+003,8.739636e+001
1.950104e+003,8.622900e+001
1.951068e+003,8.066235e+001
1.952032e+003,7.737476e+001
1.952997e+003,7.708179e+001
1.953961e+003,7.937622e+001
1.954925e+003,8.447009e+001
1.955889e+003,8.646008e+001
1.956854e+003,8.361206e+001
1.957818e+003,8.221350e+001
1.958782e+003,8.415247e+001
1.959746e+003,8.816003e+001
1.960710e+003,9.015906e+001
1.961675e+003,9.032532e+001
1.962639e+003,9.342004e+001
1.963603e+003,9.708459e+001
1.964567e+003,9.451990e+001
1.965532e+003,8.679993e+001
1.966496e+003,8.285730e+001
1.967460e+003,8.566785e+001
1.968424e+003,8.734082e+001
1.969389e+003,8.165686e+001
1.970353e+003,7.548523e+001
1.971317e+003,7.554419e+001
1.972281e+003,7.824878e+001
1.973245e+003,7.961108e+001
1.974210e+003,8.047937e+001
1.975174e+003,8.135950e+001
1.976138e+003,8.229541e+001
1.977102e+003,8.500757e+001
1.978067e+003,8.908093e+001
1.979031e+003,8.941309e+001
1.979995e+003,8.218384e+001
1.980959e+003,7.263635e+001
1.981924e+003,7.107190e+001
1.982888e+003,7.688550e+001
1.983852e+003,7.784045e+001
1.984816e+003,7.231885e+001
1.985781e+003,6.993787e+001
1.986745e+003,7.503149e+001
1.987709e+003,7.649402e+001
1.988673e+003,6.482043e+001
1.989637e+003,5.685388e+001
1.990602e+003,6.830151e+001
1.991566e+003,8.465576e+001
1.992530e+003,8.648840e+001
1.993494e+003,7.858179e+001
1.994459e+003,7.399524e+001
1.995423e+003,7.005835e+001
1.996387e+003,7.041455e+001
1.997351e+003,7.787512e+001
1.998316e+003,8.268091e+001
1.999280e+003,8.446448e+001
2.000244e+003,8.725244e+001
2.001208e+003,9.524609e+001
2.002172e+003,1.020299e+002
2.003137e+003,9.715369e+001
2.004101e+003,8.555627e+001
2.005065e+003,7.983838e+001
2.006029e+003,8.229028e+001
2.006994e+003,8.639539e+001
2.007958e+003,8.838879e+001
2.008922e+003,8.659570e+001
2.009886e+003,8.054626e+001
2.010851e+003,7.627502e+001
2.011815e+003,7.769604e+001
2.012779e+003,8.145947e+001
2.013743e+003,8.465906e+001
2.014708e+003,8.592749e+001
2.015672e+003,8.289795e+001
2.016636e+003,7.711780e+001
2.017600e+003,7.441272e+001
2.018564e+003,7.654541e+001
2.019529e+003,7.966492e+001
2.020493e+003,8.158008e+001
2.021457e+003,8.395325e+001
2.022421e+003,8.711121e+001
2.023386e+003,8.966663e+001
2.024350e+003,9.137805e+001
2.025314e+003,9.258411e+001
2.026278e+003,9.173071e+001
2.027243e+003,8.917383e+001
2.028207e+003,8.611462e+001
2.029171e+003,8.178577e+001
2.030135e+003,7.874744e+001
2.031099e+003,7.881445e+001
2.032064e+003,8.068237e+001
2.033028e+003,8.265588e+001
2.033992e+003,8.231067e+001
2.034956e+003,7.849744e+001
2.035921e+003,7.519250e+001
2.036885e+003,7.637781e+001
2.037849e+003,8.464917e+001
2.038813e+003,9.407922e+001
2.039778e+003,9.853394e+001
2.040742e+003,9.517542e+001
2.041706e+003,8.259851e+001
2.042670e+003,7.148999e+001
2.043635e+003,7.034302e+001
2.044599e+003,7.459216e+001
2.045563e+003,7.751758e+001
2.046527e+003,7.919604e+001
2.047491e+003,8.030188e+001
2.048456e+003,8.150745e+001
2.049420e+003,8.383179e+001
2.050384e+003,8.321057e+001
2.051348e+003,8.198352e+001
2.052313e+003,8.509778e+001
2.053277e+003,8.872461e+001
2.054241e+003,9.232983e+001
2.055205e+003,9.416418e+001
2.056170e+003,8.526379e+001
2.057134e+003,6.908459e+001
2.058098e+003,6.157056e+001
2.059062e+003,6.749780e+001
2.060027e+003,7.607190e+001
2.060991e+003,8.079578e+001
2.061955e+003,8.285999e+001
2.062919e+003,8.101697e+001
2.063884e+003,7.779993e+001
2.064848e+003,8.038403e+001
2.065812e+003,8.633313e+001
2.066776e+003,8.508057e+001
2.067740e+003,7.787048e+001
2.068705e+003,7.584155e+001
2.069669e+003,8.063293e+001
2.070633e+003,8.564331e+001
2.071597e+003,8.707654e+001
2.072562e+003,8.386267e+001
2.073526e+003,7.700671e+001
2.074490e+003,7.166650e+001
2.075454e+003,7.069263e+001
2.076418e+003,7.178870e+001
2.077383e+003,7.443091e+001
2.078347e+003,7.602173e+001
2.079311e+003,7.376953e+001
2.080275e+003,7.277600e+001
2.081240e+003,7.444385e+001
2.082204e+003,7.554443e+001
2.083168e+003,7.913208e+001
2.084132e+003,8.720984e+001
2.085096e+003,9.254761e+001
2.086061e+003,8.918848e+001
2.087025e+003,8.150635e+001
2.087989e+003,7.688489e+001
2.088953e+003,7.532910e+001
2.089918e+003,7.352905e+001
2.090882e+003,7.112097e+001
2.091846e+003,6.875330e+001
2.092810e+003,6.594788e+001
2.093775e+003,6.597864e+001
2.094739e+003,7.012439e+001
2.095703e+003,7.366162e+001
2.096667e+003,7.313025e+001
2.097632e+003,7.149756e+001
2.098596e+003,7.445886e+001
2.099560e+003,8.219238e+001
2.100524e+003,8.734509e+001
2.101489e+003,8.644250e+001
2.102453e+003,8.297620e+001
2.103417e+003,7.706726e+001
2.104381e+003,7.230701e+001
2.105345e+003,7.137207e+001
2.106310e+003,6.960840e+001
2.107274e+003,6.305701e+001
2.108238e+003,5.838684e+001
2.109202e+003,5.807507e+001
2.110167e+003,6.154419e+001
2.111131e+003,7.125317e+001
2.112095e+003,8.266882e+001
2.113059e+003,8.343005e+001
2.114023e+003,7.552502e+001
2.114988e+003,7.355957e+001
2.115952e+003,7.674707e+001
2.116916e+003,7.650891e+001
2.117880e+003,7.221912e+001
2.118845e+003,6.554639e+001
2.119809e+003,5.928162e+001
2.120773e+003,5.704480e+001
2.121737e+003,5.652783e+001
2.122702e+003,5.760669e+001
2.123666e+003,6.507471e+001
2.124630e+003,7.576489e+001
2.125594e+003,7.869702e+001
2.126559e+003,7.171008e+001
2.127523e+003,6.335999e+001
2.128487e+003,5.648291e+001
2.129451e+003,5.423962e+001
2.130416e+003,5.840491e+001
2.131380e+003,6.352808e+001
2.132344e+003,6.737720e+001
2.133308e+003,6.931091e+001
2.134272e+003,6.636951e+001
2.135237e+003,6.013855e+001
2.136201e+003,5.587866e+001
2.137165e+003,5.525586e+001
2.138129e+003,5.702551e+001
2.139094e+003,6.112329e+001
2.140058e+003,6.493469e+001
2.141022e+003,6.414551e+001
2.141986e+003,6.091211e+001
2.142950e+003,5.894128e+001
2.143915e+003,5.735315e+001
2.144879e+003,5.352527e+001
2.145843e+003,4.817957e+001
2.146807e+003,4.419519e+001
2.147772e+003,4.319482e+001
2.148736e+003,4.351819e+001
2.149700e+003,4.350708e+001
2.150664e+003,4.480359e+001
2.151629e+003,4.854858e+001
2.152593e+003,5.118811e+001
2.153557e+003,5.078027e+001
2.154521e+003,5.032947e+001
2.155486e+003,5.020752e+001
2.156450e+003,4.973010e+001
2.157414e+003,5.065698e+001
2.158378e+003,5.259448e+001
2.159343e+003,5.498706e+001
2.160307e+003,5.662183e+001
2.161271e+003,5.246191e+001
2.162235e+003,4.282190e+001
2.163199e+003,3.678601e+001
2.164164e+003,3.859131e+001
2.165128e+003,3.996069e+001
2.166092e+003,3.273608e+001
2.167056e+003,2.751917e+001
2.168021e+003,4.168787e+001
2.168985e+003,6.124048e+001
2.169949e+003,6.272021e+001
2.170913e+003,5.308911e+001
2.171877e+003,4.763135e+001
2.172842e+003,4.760449e+001
2.173806e+003,4.665662e+001
2.174770e+003,4.287378e+001
2.175734e+003,3.918103e+001
2.176699e+003,3.711914e+001
2.177663e+003,3.822437e+001
2.178627e+003,4.530261e+001
2.179591e+003,5.269666e+001
2.180556e+003,4.815479e+001
2.181520e+003,3.675842e+001
2.182484e+003,3.270447e+001
2.183448e+003,3.523816e+001
2.184413e+003,4.105176e+001
2.185377e+003,4.772717e+001
2.186341e+003,4.737915e+001
2.187305e+003,3.972424e+001
2.188270e+003,3.586523e+001
2.189234e+003,4.124365e+001
2.190198e+003,4.929871e+001
2.191162e+003,5.268457e+001
2.192126e+003,5.079553e+001
2.193091e+003,4.521997e+001
2.194055e+003,3.872485e+001
2.195019e+003,3.599353e+001
2.195983e+003,3.696753e+001
2.196948e+003,3.715295e+001
2.197912e+003,3.681909e+001
2.198876e+003,4.089160e+001
2.199840e+003,4.821838e+001
2.200804e+003,5.172986e+001
2.201769e+003,4.885291e+001
2.202733e+003,4.402808e+001
2.203697e+003,4.174133e+001
2.204661e+003,4.024170e+001
2.205626e+003,3.516125e+001
2.206590e+003,3.006787e+001
2.207554e+003,3.147986e+001
2.208518e+003,3.536987e+001
2.209483e+003,3.663757e+001
2.210447e+003,3.637256e+001
2.211411e+003,3.475867e+001
2.212375e+003,3.253052e+001
2.213340e+003,3.325623e+001
2.214304e+003,3.790552e+001
2.215268e+003,4.296826e+001
2.216232e+003,4.490356e+001
2.217197e+003,4.300952e+001
2.218161e+003,3.858325e+001
2.219125e+003,3.297168e+001
2.220089e+003,2.668311e+001
2.221053e+003,2.284644e+001
2.222018e+003,2.412939e+001
2.222982e+003,2.640405e+001
2.223946e+003,2.674756e+001
2.224910e+003,2.733276e+001
2.225875e+003,3.058276e+001
2.226839e+003,3.530347e+001
2.227803e+003,3.626135e+001
2.228767e+003,3.067725e+001
2.229731e+003,2.468628e+001
2.230696e+003,2.482483e+001
2.231660e+003,2.649402e+001
2.232624e+003,2.446033e+001
2.233588e+003,2.284851e+001
2.234553e+003,2.485974e+001
2.235517e+003,2.921948e+001
2.236481e+003,3.497876e+001
2.237445e+003,3.919775e+001
2.238410e+003,3.892603e+001
2.239374e+003,3.605591e+001
2.240338e+003,3.411560e+001
2.241302e+003,3.397961e+001
2.242267e+003,3.508398e+001
2.243231e+003,3.737732e+001
2.244195e+003,3.995435e+001
2.245159e+003,4.054041e+001
2.246124e+003,4.026721e+001
2.247088e+003,4.234851e+001
2.248052e+003,4.326013e+001
2.249016e+003,3.883240e+001
2.249980e+003,3.202869e+001
2.250945e+003,2.643909e+001
2.251909e+003,2.369519e+001
2.252873e+003,2.463660e+001
2.253837e+003,2.738037e+001
2.254802e+003,2.772424e+001
2.255766e+003,2.485461e+001
2.256730e+003,2.291211e+001
2.257694e+003,2.331274e+001
2.258658e+003,2.486621e+001
2.259623e+003,2.898694e+001
2.260587e+003,3.181274e+001
2.261551e+003,2.858997e+001
2.262515e+003,2.358813e+001
2.263480e+003,2.316199e+001
2.264444e+003,2.598596e+001
2.265408e+003,2.606750e+001
2.266372e+003,2.209888e+001
2.267337e+003,1.840601e+001
2.268301e+003,1.689063e+001
2.269265e+003,1.624243e+001
2.270229e+003,2.085010e+001
2.271194e+003,2.792688e+001
2.272158e+003,2.886121e+001
2.273122e+003,2.682471e+001
2.274086e+003,2.652478e+001
2.275051e+003,2.587769e+001
2.276015e+003,2.426208e+001
2.276979e+003,2.383972e+001
2.277943e+003,2.493433e+001
2.278907e+003,2.666687e+001
2.279872e+003,2.858789e+001
2.280836e+003,2.923132e+001
2.281800e+003,2.753918e+001
2.282764e+003,2.514575e+001
2.283729e+003,2.293433e+001
2.284693e+003,2.099121e+001
2.285657e+003,2.341821e+001
2.286621e+003,3.008911e+001
2.287585e+003,3.267297e+001
2.288550e+003,2.891821e+001
2.289514e+003,2.445447e+001
2.290478e+003,2.334058e+001
2.291442e+003,2.430627e+001
2.292407e+003,2.230103e+001
2.293371e+003,1.767297e+001
2.294335e+003,2.037598e+001
2.295299e+003,3.364673e+001
2.296264e+003,3.474927e+001
2.297228e+003,1.704749e+001
2.298192e+003,6.396851e+000
2.299156e+003,8.045410e+000
2.300121e+003,1.461462e+001
2.301085e+003,2.332776e+001
2.302049e+003,2.813452e+001
2.303013e+003,2.592615e+001
2.303978e+003,2.348401e+001
2.304942e+003,2.719031e+001
2.305906e+003,3.409656e+001
2.306870e+003,3.941931e+001
2.307834e+003,4.303564e+001
2.308799e+003,4.298303e+001
2.309763e+003,4.023450e+001
2.310727e+003,4.293066e+001
2.311691e+003,5.013489e+001
2.312656e+003,4.979407e+001
2.313620e+003,3.964990e+001
2.314584e+003,3.284595e+001
2.315548e+003,3.461548e+001
2.316512e+003,3.702563e+001
2.317477e+003,3.596606e+001
2.318441e+003,3.713782e+001
2.319405e+003,4.524988e+001
2.320369e+003,5.486169e+001
2.321334e+003,5.319568e+001
2.322298e+003,4.257043e+001
2.323262e+003,4.131763e+001
2.324226e+003,4.872827e+001
2.325191e+003,4.926038e+001
2.326155e+003,4.301489e+001
2.327119e+003,4.111304e+001
2.328083e+003,4.456409e+001
2.329048e+003,4.888184e+001
2.330012e+003,5.369824e+001
2.330976e+003,5.701953e+001
2.331940e+003,5.367993e+001
2.332905e+003,4.853894e+001
2.333869e+003,5.221619e+001
2.334833e+003,5.779028e+001
2.335797e+003,5.671191e+001
2.336761e+003,5.469385e+001
2.337726e+003,5.537402e+001
2.338690e+003,5.514722e+001
2.339654e+003,5.132312e+001
2.340618e+003,4.745337e+001
2.341583e+003,4.933752e+001
2.342547e+003,5.686841e+001
2.343511e+003,6.430444e+001
2.344475e+003,6.877893e+001
2.345439e+003,7.047888e+001
2.346404e+003,6.794775e+001
2.347368e+003,6.419763e+001
2.348332e+003,6.161682e+001
2.349296e+003,6.186401e+001
2.350261e+003,6.823560e+001
2.351225e+003,7.525891e+001
2.352189e+003,7.430786e+001
2.353153e+003,7.154871e+001
2.354118e+003,7.636597e+001
2.355082e+003,8.409814e+001
2.356046e+003,8.635742e+001
2.357010e+003,8.589355e+001
2.357975e+003,8.826831e+001
2.358939e+003,9.382654e+001
2.359903e+003,9.737207e+001
2.360867e+003,9.299683e+001
2.361832e+003,9.162939e+001
2.362796e+003,1.012632e+002
2.363760e+003,1.063994e+002
2.364724e+003,1.016345e+002
2.365688e+003,1.006429e+002
2.366653e+003,1.080662e+002
2.367617e+003,1.153531e+002
2.368581e+003,1.165403e+002
2.369545e+003,1.152327e+002
2.370510e+003,1.181974e+002
2.371474e+003,1.247147e+002
2.372438e+003,1.268773e+002
2.373402e+003,1.249589e+002
2.374366e+003,1.235121e+002
2.375331e+003,1.232185e+002
2.376295e+003,1.254927e+002
2.377259e+003,1.295231e+002
2.378223e+003,1.293350e+002
2.379188e+003,1.243396e+002
2.380152e+003,1.247061e+002
2.381116e+003,1.356639e+002
2.382080e+003,1.445999e+002
2.383045e+003,1.399257e+002
2.384009e+003,1.317466e+002
2.384973e+003,1.297230e+002
2.385937e+003,1.300206e+002
2.386902e+003,1.299368e+002
2.387866e+003,1.328141e+002
2.388830e+003,1.403120e+002
2.389794e+003,1.473414e+002
2.390759e+003,1.485724e+002
2.391723e+003,1.452358e+002
2.392687e+003,1.428229e+002
2.393651e+003,1.441951e+002
2.394615e+003,1.478668e+002
2.395580e+003,1.523921e+002
2.396544e+003,1.549678e+002
2.397508e+003,1.544854e+002
2.398472e+003,1.520209e+002
2.399437e+003,1.471919e+002
2.400401e+003,1.458823e+002
2.401365e+003,1.506957e+002
2.402329e+003,1.543678e+002
2.403293e+003,1.515955e+002
2.404258e+003,1.470616e+002
2.405222e+003,1.471669e+002
2.406186e+003,1.512280e+002
2.407150e+003,1.550825e+002
2.408115e+003,1.578832e+002
2.409079e+003,1.583779e+002
2.410043e+003,1.565280e+002
2.411007e+003,1.576724e+002
2.411972e+003,1.620354e+002
2.412936e+003,1.646747e+002
2.413900e+003,1.637756e+002
2.414864e+003,1.604362e+002
2.415829e+003,1.575251e+002
2.416793e+003,1.611575e+002
2.417757e+003,1.723589e+002
2.418721e+003,1.798489e+002
2.419686e+003,1.749568e+002
2.420650e+003,1.683323e+002
2.421614e+003,1.706763e+002
2.422578e+003,1.756100e+002
2.423542e+003,1.765303e+002
2.424507e+003,1.755096e+002
2.425471e+003,1.774365e+002
2.426435e+003,1.807784e+002
2.427399e+003,1.804198e+002
2.428364e+003,1.751691e+002
2.429328e+003,1.667659e+002
2.430292e+003,1.590802e+002
2.431256e+003,1.575432e+002
2.432220e+003,1.628995e+002
2.433185e+003,1.683231e+002
2.434149e+003,1.694305e+002
2.435113e+003,1.722074e+002
2.436077e+003,1.827560e+002
2.437042e+003,1.858201e+002
2.438006e+003,1.745354e+002
2.438970e+003,1.641002e+002
2.439934e+003,1.612693e+002
2.440899e+003,1.615038e+002
2.441863e+003,1.622791e+002
2.442827e+003,1.641299e+002
2.443791e+003,1.656914e+002
2.444756e+003,1.658320e+002
2.445720e+003,1.660291e+002
2.446684e+003,1.658271e+002
2.447648e+003,1.611958e+002
2.448613e+003,1.539974e+002
2.449577e+003,1.498950e+002
2.450541e+003,1.487780e+002
2.451505e+003,1.497124e+002
2.452469e+003,1.515417e+002
2.453434e+003,1.483744e+002
2.454398e+003,1.375121e+002
2.455362e+003,1.264445e+002
2.456326e+003,1.234603e+002
2.457291e+003,1.270424e+002
2.458255e+003,1.349377e+002
2.459219e+003,1.415327e+002
2.460183e+003,1.402721e+002
2.461147e+003,1.354346e+002
2.462112e+003,1.338093e+002
2.463076e+003,1.347484e+002
2.464040e+003,1.354286e+002
2.465004e+003,1.324446e+002
2.465969e+003,1.239019e+002
2.466933e+003,1.162295e+002
2.467897e+003,1.164584e+002
2.468861e+003,1.210475e+002
2.469826e+003,1.228044e+002
2.470790e+003,1.221569e+002
2.471754e+003,1.242441e+002
2.472718e+003,1.310426e+002
2.473683e+003,1.363370e+002
2.474647e+003,1.362578e+002
2.475611e+003,1.301995e+002
2.476575e+003,1.210242e+002
2.477540e+003,1.155206e+002
2.478504e+003,1.151708e+002
2.479468e+003,1.158174e+002
2.480432e+003,1.152749e+002
2.481396e+003,1.142469e+002
2.482361e+003,1.144644e+002
2.483325e+003,1.164043e+002
2.484289e+003,1.171224e+002
2.485253e+003,1.159943e+002
2.486218e+003,1.149233e+002
2.487182e+003,1.119586e+002
2.488146e+003,1.048741e+002
2.489110e+003,9.757861e+001
2.490074e+003,9.433960e+001
2.491039e+003,9.584558e+001
2.492003e+003,1.003464e+002
2.492967e+003,1.039121e+002
2.493931e+003,1.043616e+002
2.494896e+003,1.050022e+002
2.495860e+003,1.038156e+002
2.496824e+003,1.001985e+002
2.497788e+003,9.980347e+001
2.498753e+003,1.022594e+002
2.499717e+003,1.033472e+002
2.500681e+003,1.030132e+002
2.501645e+003,9.946924e+001
2.502610e+003,9.091675e+001
2.503574e+003,8.486768e+001
2.504538e+003,8.898926e+001
2.505502e+003,9.771033e+001
2.506467e+003,1.020132e+002
2.507431e+003,1.020490e+002
2.508395e+003,9.999414e+001
2.509359e+003,9.811353e+001
2.510323e+003,9.908142e+001
2.511288e+003,1.002650e+002
2.512252e+003,9.849829e+001
2.513216e+003,9.447058e+001
2.514180e+003,8.728064e+001
2.515145e+003,8.030981e+001
2.516109e+003,8.286865e+001
2.517073e+003,9.461584e+001
2.518037e+003,9.918115e+001
2.519001e+003,9.221765e+001
2.519966e+003,8.827087e+001
2.520930e+003,8.895752e+001
2.521894e+003,8.791187e+001
2.522858e+003,8.378906e+001
2.523823e+003,8.300439e+001
2.524787e+003,8.745349e+001
2.525751e+003,8.943811e+001
2.526715e+003,8.564722e+001
2.527680e+003,8.138696e+001
2.528644e+003,8.118701e+001
2.529608e+003,8.423450e+001
2.530572e+003,8.776184e+001
2.531537e+003,8.972998e+001
2.532501e+003,8.990405e+001
2.533465e+003,8.959692e+001
2.534429e+003,9.057886e+001
2.535394e+003,9.277734e+001
2.536358e+003,9.427405e+001
2.537322e+003,9.348584e+001
2.538286e+003,8.848132e+001
2.539250e+003,8.271387e+001
2.540215e+003,8.419983e+001
2.541179e+003,9.195691e+001
2.542143e+003,9.456665e+001
2.543107e+003,9.406689e+001
2.544072e+003,9.410962e+001
2.545036e+003,9.117358e+001
2.546000e+003,8.921448e+001
2.546964e+003,8.757751e+001
2.547928e+003,9.257312e+001
2.548893e+003,1.055902e+002
2.549857e+003,1.111798e+002
2.550821e+003,1.046298e+002
2.551785e+003,9.666235e+001
2.552750e+003,9.367834e+001
2.553714e+003,9.038660e+001
2.554678e+003,8.158826e+001
2.555642e+003,7.474780e+001
2.556607e+003,7.565881e+001
2.557571e+003,7.838977e+001
2.558535e+003,8.143616e+001
2.559499e+003,8.226794e+001
2.560464e+003,8.018372e+001
2.561428e+003,7.872864e+001
2.562392e+003,7.787305e+001
2.563356e+003,7.663733e+001
2.564321e+003,7.568677e+001
2.565285e+003,7.615051e+001
2.566249e+003,7.858398e+001
2.567213e+003,8.114160e+001
2.568177e+003,8.197363e+001
2.569142e+003,8.157654e+001
2.570106e+003,8.006543e+001
2.571070e+003,7.907422e+001
2.572034e+003,7.873535e+001
2.572999e+003,7.945813e+001
2.573963e+003,8.056860e+001
2.574927e+003,8.048889e+001
2.575891e+003,8.210742e+001
2.576855e+003,8.546790e+001
2.577820e+003,8.234485e+001
2.578784e+003,7.023523e+001
2.579748e+003,6.078577e+001
2.580712e+003,5.973694e+001
2.581677e+003,6.227014e+001
2.582641e+003,6.459314e+001
2.583605e+003,6.542285e+001
2.584569e+003,6.544031e+001
2.585534e+003,6.654175e+001
2.586498e+003,7.118884e+001
2.587462e+003,7.520300e+001
2.588426e+003,7.321362e+001
2.589391e+003,6.699512e+001
2.590355e+003,6.076367e+001
2.591319e+003,5.578064e+001
2.592283e+003,5.506995e+001
2.593248e+003,5.769666e+001
2.594212e+003,6.173950e+001
2.595176e+003,6.579163e+001
2.596140e+003,6.650903e+001
2.597104e+003,6.490698e+001
2.598069e+003,6.420813e+001
2.599033e+003,6.347888e+001
2.599997e+003,5.876050e+001
2.600961e+003,5.134363e+001
2.601926e+003,4.867090e+001
2.602890e+003,5.233386e+001
2.603854e+003,5.499915e+001
2.604818e+003,5.445868e+001
2.605782e+003,5.229163e+001
2.606747e+003,4.982953e+001
2.607711e+003,4.890143e+001
2.608675e+003,4.972223e+001
2.609639e+003,5.094818e+001
2.610604e+003,5.237756e+001
2.611568e+003,5.276727e+001
2.612532e+003,5.093268e+001
2.613496e+003,4.855939e+001
2.614461e+003,4.618500e+001
2.615425e+003,4.362048e+001
2.616389e+003,4.213593e+001
2.617353e+003,4.073572e+001
2.618318e+003,4.091296e+001
2.619282e+003,4.006958e+001
2.620246e+003,3.584418e+001
2.621210e+003,3.467096e+001
2.622175e+003,3.757513e+001
2.623139e+003,4.256372e+001
2.624103e+003,5.107892e+001
2.625067e+003,5.699835e+001
2.626031e+003,5.107532e+001
2.626996e+003,4.113605e+001
2.627960e+003,4.309698e+001
2.628924e+003,5.149341e+001
2.629888e+003,5.225482e+001
2.630853e+003,4.691412e+001
2.631817e+003,4.616846e+001
2.632781e+003,5.307062e+001
2.633745e+003,5.808588e+001
2.634709e+003,5.598383e+001
2.635674e+003,5.128882e+001
2.636638e+003,4.645996e+001
2.637602e+003,4.134180e+001
2.638566e+003,4.029926e+001
2.639531e+003,4.190881e+001
2.640495e+003,3.998859e+001
2.641459e+003,3.829022e+001
2.642423e+003,3.919781e+001
2.643388e+003,4.029218e+001
2.644352e+003,4.003632e+001
2.645316e+003,3.772662e+001
2.646280e+003,3.289484e+001
2.647245e+003,2.808527e+001
2.648209e+003,2.791040e+001
2.649173e+003,3.353076e+001
2.650137e+003,4.259393e+001
2.651102e+003,5.076819e+001
2.652066e+003,5.078558e+001
2.653030e+003,4.537561e+001
2.653994e+003,4.253583e+001
2.654958e+003,4.131494e+001
2.655923e+003,4.073267e+001
2.656887e+003,4.058264e+001
2.657851e+003,3.441583e+001
2.658815e+003,2.853699e+001
2.659780e+003,3.352563e+001
2.660744e+003,4.348633e+001
2.661708e+003,4.652692e+001
2.662672e+003,4.514410e+001
2.663636e+003,4.494952e+001
2.664601e+003,4.501123e+001
2.665565e+003,4.218207e+001
2.666529e+003,3.864874e+001
2.667493e+003,4.011621e+001
2.668458e+003,4.427496e+001
2.669422e+003,4.405658e+001
2.670386e+003,3.827905e+001
2.671350e+003,3.242902e+001
2.672315e+003,3.082111e+001
2.673279e+003,3.138287e+001
2.674243e+003,3.034161e+001
2.675207e+003,3.033813e+001
2.676172e+003,3.313885e+001
2.677136e+003,3.226111e+001
2.678100e+003,2.886713e+001
2.679064e+003,2.915955e+001
2.680029e+003,3.094305e+001
2.680993e+003,3.195483e+001
2.681957e+003,3.311743e+001
2.682921e+003,3.038190e+001
2.683885e+003,2.091431e+001
2.684850e+003,1.411011e+001
2.685814e+003,2.014081e+001
2.686778e+003,2.741150e+001
2.687742e+003,2.423779e+001
2.688707e+003,2.618158e+001
2.689671e+003,3.751392e+001
2.690635e+003,4.443494e+001
2.691599e+003,4.815466e+001
2.692563e+003,4.500262e+001
2.693528e+003,3.250287e+001
2.694492e+003,2.054095e+001
2.695456e+003,1.543103e+001
2.696420e+003,1.611487e+001
2.697385e+003,2.299829e+001
2.698349e+003,2.995673e+001
2.699313e+003,2.969678e+001
2.700277e+003,2.861829e+001
2.701242e+003,2.915057e+001
2.702206e+003,2.853174e+001
2.703170e+003,2.702026e+001
2.704134e+003,2.503156e+001
2.705099e+003,2.419653e+001
2.706063e+003,2.506152e+001
2.707027e+003,2.689716e+001
2.707991e+003,2.764563e+001
2.708956e+003,2.205658e+001
2.709920e+003,1.217200e+001
2.710884e+003,1.311981e+001
2.711848e+003,2.173962e+001
2.712813e+003,2.520197e+001
2.713777e+003,2.687811e+001
2.714741e+003,2.727618e+001
2.715705e+003,2.376501e+001
2.716669e+003,2.219214e+001
2.717634e+003,2.364063e+001
2.718598e+003,2.316119e+001
2.719562e+003,2.339459e+001
2.720526e+003,2.510138e+001
2.721490e+003,2.060986e+001
2.722455e+003,1.920508e+001
2.723419e+003,2.579236e+001
2.724383e+003,2.294873e+001
2.725347e+003,1.294104e+001
2.726312e+003,1.362012e+001
2.727276e+003,2.072296e+001
2.728240e+003,2.343347e+001
2.729204e+003,2.429480e+001
2.730169e+003,2.417493e+001
2.731133e+003,1.917371e+001
2.732097e+003,1.661017e+001
2.733061e+003,2.165356e+001
2.734026e+003,2.100482e+001
2.734990e+003,2.056793e+001
2.735954e+003,2.176263e+001
2.736918e+003,1.884106e+001
2.737883e+003,1.818683e+001
2.738847e+003,1.927185e+001
2.739811e+003,1.982874e+001
2.740775e+003,2.004382e+001
2.741740e+003,1.801501e+001
2.742704e+003,1.548175e+001
2.743668e+003,1.624023e+001
2.744632e+003,1.942688e+001
2.745596e+003,2.181445e+001
2.746561e+003,1.550281e+001
2.747525e+003,8.674744e+000
2.748489e+003,1.334863e+001
2.749453e+003,1.489044e+001
2.750417e+003,8.995178e+000
2.751382e+003,8.868225e+000
2.752346e+003,1.828125e+001
2.753310e+003,2.619208e+001
2.754274e+003,2.504529e+001
2.755239e+003,2.229962e+001
2.756203e+003,2.747668e+001
2.757167e+003,3.083325e+001
2.758131e+003,1.894464e+001
2.759096e+003,6.600708e+000
2.760060e+003,4.395386e+000
2.761024e+003,5.668884e+000
2.761988e+003,7.230347e+000
2.762953e+003,8.931763e+000
2.763917e+003,1.063947e+001
2.764881e+003,1.132837e+001
2.765845e+003,9.474731e+000
2.766810e+003,9.227295e+000
2.767774e+003,2.045587e+001
2.768738e+003,3.367676e+001
2.769702e+003,2.926654e+001
2.770667e+003,2.011603e+001
2.771631e+003,1.378265e+001
2.772595e+003,8.155334e+000
2.773559e+003,1.147693e+001
2.774523e+003,1.729413e+001
2.775488e+003,1.752075e+001
2.776452e+003,1.840161e+001
2.777416e+003,1.772803e+001
2.778380e+003,9.932312e+000
2.779344e+003,1.243762e+001
2.780309e+003,2.603912e+001
2.781273e+003,2.132489e+001
2.782237e+003,1.300909e+001
2.783201e+003,1.533856e+001
2.784166e+003,1.634863e+001
2.785130e+003,2.096442e+001
2.786094e+003,2.673102e+001
2.787058e+003,2.463458e+001
2.788023e+003,2.007672e+001
2.788987e+003,1.802686e+001
2.789951e+003,1.709613e+001
2.790915e+003,2.408167e+001
2.791880e+003,3.655884e+001
2.792844e+003,3.110413e+001
2.793808e+003,1.645648e+001
2.794772e+003,1.596686e+001
2.795737e+003,2.013190e+001
2.796701e+003,1.932507e+001
2.797665e+003,1.778180e+001
2.798629e+003,2.142682e+001
2.799594e+003,2.966797e+001
2.800558e+003,3.286688e+001
2.801522e+003,3.035876e+001
2.802486e+003,3.220093e+001
2.803450e+003,3.450934e+001
2.804415e+003,2.950018e+001
2.805379e+003,2.002124e+001
2.806343e+003,2.065094e+001
2.807307e+003,3.391241e+001
2.808271e+003,3.499054e+001
2.809236e+003,2.086157e+001
2.810200e+003,1.910394e+001
2.811164e+003,3.237561e+001
2.812128e+003,3.452740e+001
2.813093e+003,2.374451e+001
2.814057e+003,2.744385e+001
2.815021e+003,3.867584e+001
2.815985e+003,3.525189e+001
2.816950e+003,2.689716e+001
2.817914e+003,2.617938e+001
2.818878e+003,2.908514e+001
2.819842e+003,3.303796e+001
2.820807e+003,3.833551e+001
2.821771e+003,3.865723e+001
2.822735e+003,3.155261e+001
2.823699e+003,2.737646e+001
2.824664e+003,3.224963e+001
2.825628e+003,3.130353e+001
2.826592e+003,2.227759e+001
2.827556e+003,2.577014e+001
2.828521e+003,3.771118e+001
2.829485e+003,3.779773e+001
2.830449e+003,2.989423e+001
2.831413e+003,2.648145e+001
2.832377e+003,2.633258e+001
2.833342e+003,2.440143e+001
2.834306e+003,2.174103e+001
2.835270e+003,2.195361e+001
2.836234e+003,2.508051e+001
2.837198e+003,2.709216e+001
2.838163e+003,2.791309e+001
2.839127e+003,3.030432e+001
2.840091e+003,3.430420e+001
2.841055e+003,3.737384e+001
2.842020e+003,3.781042e+001
2.842984e+003,3.868445e+001
2.843948e+003,4.055731e+001
2.844912e+003,3.833142e+001
2.845877e+003,3.212634e+001
2.846841e+003,2.795782e+001
2.847805e+003,2.731683e+001
2.848769e+003,2.659479e+001
2.849734e+003,2.404639e+001
2.850698e+003,2.218146e+001
2.851662e+003,2.087390e+001
2.852626e+003,2.130804e+001
2.853591e+003,2.482050e+001
2.854555e+003,2.883051e+001
2.855519e+003,3.156146e+001
2.856483e+003,3.277087e+001
2.857448e+003,3.253278e+001
2.858412e+003,3.335278e+001
2.859376e+003,3.833655e+001
2.860340e+003,4.402191e+001
2.861304e+003,5.035748e+001
2.862269e+003,4.977649e+001
2.863233e+003,3.912738e+001
2.864197e+003,3.329364e+001
2.865161e+003,3.670477e+001
2.866125e+003,4.201184e+001
2.867090e+003,4.470691e+001
2.868054e+003,4.440430e+001
2.869018e+003,4.108148e+001
2.869982e+003,3.425714e+001
2.870947e+003,2.663910e+001
2.871911e+003,2.962646e+001
2.872875e+003,4.180548e+001
2.873839e+003,4.817780e+001
2.874804e+003,4.959094e+001
2.875768e+003,4.827838e+001
2.876732e+003,4.555402e+001
2.877696e+003,4.331738e+001
2.878661e+003,4.212836e+001
2.879625e+003,4.222003e+001
2.880589e+003,4.388080e+001
2.881553e+003,5.073737e+001
2.882518e+003,6.613452e+001
2.883482e+003,7.075995e+001
2.884446e+003,6.037750e+001
2.885410e+003,6.012567e+001
2.886375e+003,6.943292e+001
2.887339e+003,7.291760e+001
2.888303e+003,7.080951e+001
2.889267e+003,7.108301e+001
2.890231e+003,7.456152e+001
2.891196e+003,7.791528e+001
2.892160e+003,8.054974e+001
2.893124e+003,8.405707e+001
2.894088e+003,8.851495e+001
2.895052e+003,9.680127e+001
2.896017e+003,1.097272e+002
2.896981e+003,1.133965e+002
2.897945e+003,1.090579e+002
2.898909e+003,1.062064e+002
2.899874e+003,1.066610e+002
2.900838e+003,1.137316e+002
2.901802e+003,1.244301e+002
2.902766e+003,1.273168e+002
2.903731e+003,1.224143e+002
2.904695e+003,1.267646e+002
2.905659e+003,1.411016e+002
2.906623e+003,1.470952e+002
2.907588e+003,1.453724e+002
2.908552e+003,1.462606e+002
2.909516e+003,1.494716e+002
2.910480e+003,1.528942e+002
2.911445e+003,1.562109e+002
2.912409e+003,1.586391e+002
2.913373e+003,1.612919e+002
2.914337e+003,1.685025e+002
2.915302e+003,1.789324e+002
2.916266e+003,1.837389e+002
2.917230e+003,1.836919e+002
2.918194e+003,1.892891e+002
2.919158e+003,1.985499e+002
2.920123e+003,2.024736e+002
2.921087e+003,2.030754e+002
2.922051e+003,2.040309e+002
2.923015e+003,2.066428e+002
2.923979e+003,2.130150e+002
2.924944e+003,2.216461e+002
2.925908e+003,2.293027e+002
2.926872e+003,2.354213e+002
2.927836e+003,2.378237e+002
2.928801e+003,2.378414e+002
2.929765e+003,2.412323e+002
2.930729e+003,2.467130e+002
2.931693e+003,2.519567e+002
2.932658e+003,2.571002e+002
2.933622e+003,2.621122e+002
2.934586e+003,2.677344e+002
2.935550e+003,2.769741e+002
2.936515e+003,2.853212e+002
2.937479e+003,2.859008e+002
2.938443e+003,2.823966e+002
2.939407e+003,2.829876e+002
2.940372e+003,2.857522e+002
2.941336e+003,2.860568e+002
2.942300e+003,2.866536e+002
2.943264e+003,2.903427e+002
2.944229e+003,2.967751e+002
2.945193e+003,3.097906e+002
2.946157e+003,3.196031e+002
2.947121e+003,3.166256e+002
2.948085e+003,3.113007e+002
2.949050e+003,3.158809e+002
2.950014e+003,3.246758e+002
2.950978e+003,3.312070e+002
2.951942e+003,3.339991e+002
2.952906e+003,3.266061e+002
2.953871e+003,3.210723e+002
2.954835e+003,3.285209e+002
2.955799e+003,3.377573e+002
2.956763e+003,3.436558e+002
2.957728e+003,3.465330e+002
2.958692e+003,3.463320e+002
2.959656e+003,3.472012e+002
2.960620e+003,3.529349e+002
2.961585e+003,3.603604e+002
2.962549e+003,3.679680e+002
2.963513e+003,3.738790e+002
2.964477e+003,3.750175e+002
2.965442e+003,3.779048e+002
2.966406e+003,3.855557e+002
2.967370e+003,3.909398e+002
2.968334e+003,3.916476e+002
2.969299e+003,3.927007e+002
2.970263e+003,3.965206e+002
2.971227e+003,4.001750e+002
2.972191e+003,4.017469e+002
2.973156e+003,4.037728e+002
2.974120e+003,4.087062e+002
2.975084e+003,4.118284e+002
2.976048e+003,4.122855e+002
2.977012e+003,4.120411e+002
2.977977e+003,4.114476e+002
2.978941e+003,4.133236e+002
2.979905e+003,4.180941e+002
2.980869e+003,4.244000e+002
2.981833e+003,4.312078e+002
2.982798e+003,4.339855e+002
2.983762e+003,4.298306e+002
2.984726e+003,4.309938e+002
2.985690e+003,4.400774e+002
2.986655e+003,4.434302e+002
2.987619e+003,4.413407e+002
2.988583e+003,4.447152e+002
2.989547e+003,4.524149e+002
2.990512e+003,4.550352e+002
2.991476e+003,4.527576e+002
2.992440e+003,4.522194e+002
2.993404e+003,4.542491e+002
2.994369e+003,4.549415e+002
2.995333e+003,4.543475e+002
2.996297e+003,4.566890e+002
2.997261e+003,4.612544e+002
2.998226e+003,4.635096e+002
2.999190e+003,4.645273e+002
3.000154e+003,4.664747e+002
3.001118e+003,4.698208e+002
3.002083e+003,4.758538e+002
3.003047e+003,4.827884e+002
3.004011e+003,4.871634e+002
3.004975e+003,4.896983e+002
3.005939e+003,4.919168e+002
3.006904e+003,4.941135e+002
3.007868e+003,4.978849e+002
3.008832e+003,5.012767e+002
3.009796e+003,4.991679e+002
3.010760e+003,4.976317e+002
3.011725e+003,5.058131e+002
3.012689e+003,5.139602e+002
3.013653e+003,5.135129e+002
3.014617e+003,5.114468e+002
3.015582e+003,5.147751e+002
3.016546e+003,5.202302e+002
3.017510e+003,5.235485e+002
3.018474e+003,5.270975e+002
3.019439e+003,5.349644e+002
3.020403e+003,5.410814e+002
3.021367e+003,5.404167e+002
3.022331e+003,5.398480e+002
3.023296e+003,5.413129e+002
3.024260e+003,5.441700e+002
3.025224e+003,5.480438e+002
3.026188e+003,5.517806e+002
3.027153e+003,5.546337e+002
3.028117e+003,5.578740e+002
3.029081e+003,5.628493e+002
3.030045e+003,5.668986e+002
3.031010e+003,5.685850e+002
3.031974e+003,5.732261e+002
3.032938e+003,5.814596e+002
3.033902e+003,5.866777e+002
3.034866e+003,5.880139e+002
3.035831e+003,5.886320e+002
3.036795e+003,5.900275e+002
3.037759e+003,5.951215e+002
3.038723e+003,6.052437e+002
3.039688e+003,6.090273e+002
3.040652e+003,6.049554e+002
3.041616e+003,6.036909e+002
3.042580e+003,6.053731e+002
3.043544e+003,6.125673e+002
3.044509e+003,6.218835e+002
3.045473e+003,6.233439e+002
3.046437e+003,6.202512e+002
3.047401e+003,6.231254e+002
3.048366e+003,6.310280e+002
3.049330e+003,6.389600e+002
3.050294e+003,6.460786e+002
3.051258e+003,6.481484e+002
3.052223e+003,6.477180e+002
3.053187e+003,6.506053e+002
3.054151e+003,6.549026e+002
3.055115e+003,6.585383e+002
3.056080e+003,6.617333e+002
3.057044e+003,6.655322e+002
3.058008e+003,6.676591e+002
3.058972e+003,6.655607e+002
3.059937e+003,6.641843e+002
3.060901e+003,6.704753e+002
3.061865e+003,6.772197e+002
3.062829e+003,6.745339e+002
3.063793e+003,6.724117e+002
3.064758e+003,6.790596e+002
3.065722e+003,6.828621e+002
3.066686e+003,6.791254e+002
3.067650e+003,6.804958e+002
3.068615e+003,6.913990e+002
3.069579e+003,6.991251e+002
3.070543e+003,6.973893e+002
3.071507e+003,6.973935e+002
3.072471e+003,7.061042e+002
3.073436e+003,7.123434e+002
3.074400e+003,7.137145e+002
3.075364e+003,7.165212e+002
3.076328e+003,7.209847e+002
3.077293e+003,7.230715e+002
3.078257e+003,7.226876e+002
3.079221e+003,7.217576e+002
3.080185e+003,7.209221e+002
3.081150e+003,7.205538e+002
3.082114e+003,7.207078e+002
3.083078e+003,7.212132e+002
3.084042e+003,7.220144e+002
3.085007e+003,7.213066e+002
3.085971e+003,7.203317e+002
3.086935e+003,7.234365e+002
3.087899e+003,7.282933e+002
3.088864e+003,7.303359e+002
3.089828e+003,7.321646e+002
3.090792e+003,7.387728e+002
3.091756e+003,7.459635e+002
3.092720e+003,7.483610e+002
3.093685e+003,7.471154e+002
3.094649e+003,7.430946e+002
3.095613e+003,7.380835e+002
3.096577e+003,7.309018e+002
3.097542e+003,7.280018e+002
3.098506e+003,7.380966e+002
3.099470e+003,7.460049e+002
3.100434e+003,7.464349e+002
3.101398e+003,7.440079e+002
3.102363e+003,7.414001e+002
3.103327e+003,7.434294e+002
3.104291e+003,7.542030e+002
3.105255e+003,7.618390e+002
3.106220e+003,7.582539e+002
3.107184e+003,7.557890e+002
3.108148e+003,7.550795e+002
3.109112e+003,7.558493e+002
3.110077e+003,7.583070e+002
3.111041e+003,7.645047e+002
3.112005e+003,7.737722e+002
3.112969e+003,7.843358e+002
3.113934e+003,7.942383e+002
3.114898e+003,7.937006e+002
3.115862e+003,7.842404e+002
3.116826e+003,7.860667e+002
3.117791e+003,7.957717e+002
3.118755e+003,7.965430e+002
3.119719e+003,7.932786e+002
3.120683e+003,7.950402e+002
3.121647e+003,7.995382e+002
3.122612e+003,8.026589e+002
3.123576e+003,8.059872e+002
3.124540e+003,8.116565e+002
3.125504e+003,8.171227e+002
3.126469e+003,8.184987e+002
3.127433e+003,8.181775e+002
3.128397e+003,8.180732e+002
3.129361e+003,8.187468e+002
3.130325e+003,8.202399e+002
3.131290e+003,8.237599e+002
3.132254e+003,8.302562e+002
3.133218e+003,8.337441e+002
3.134182e+003,8.321976e+002
3.135147e+003,8.309041e+002
3.136111e+003,8.324421e+002
3.137075e+003,8.360233e+002
3.138039e+003,8.430372e+002
3.139004e+003,8.466176e+002
3.139968e+003,8.460194e+002
3.140932e+003,8.485468e+002
3.141896e+003,8.540797e+002
3.142861e+003,8.605046e+002
3.143825e+003,8.663878e+002
3.144789e+003,8.690586e+002
3.145753e+003,8.688629e+002
3.146718e+003,8.673942e+002
3.147682e+003,8.664902e+002
3.148646e+003,8.744392e+002
3.149610e+003,8.861770e+002
3.150574e+003,8.869465e+002
3.151539e+003,8.836352e+002
3.152503e+003,8.839825e+002
3.153467e+003,8.854195e+002
3.154431e+003,8.852817e+002
3.155396e+003,8.857178e+002
3.156360e+003,8.881783e+002
3.157324e+003,8.921079e+002
3.158288e+003,8.975417e+002
3.159252e+003,9.010252e+002
3.160217e+003,8.977596e+002
3.161181e+003,8.959609e+002
3.162145e+003,8.968816e+002
3.163109e+003,9.018790e+002
3.164074e+003,9.108453e+002
3.165038e+003,9.175177e+002
3.166002e+003,9.208348e+002
3.166966e+003,9.241216e+002
3.167931e+003,9.277622e+002
3.168895e+003,9.259135e+002
3.169859e+003,9.186982e+002
3.170823e+003,9.181461e+002
3.171788e+003,9.231040e+002
3.172752e+003,9.290623e+002
3.173716e+003,9.337108e+002
3.174680e+003,9.306239e+002
3.175645e+003,9.259240e+002
3.176609e+003,9.299681e+002
3.177573e+003,9.353202e+002
3.178537e+003,9.340793e+002
3.179501e+003,9.320043e+002
3.180466e+003,9.377169e+002
3.181430e+003,9.440995e+002
3.182394e+003,9.430212e+002
3.183358e+003,9.422089e+002
3.184323e+003,9.469628e+002
3.185287e+003,9.460217e+002
3.186251e+003,9.367114e+002
3.187215e+003,9.340155e+002
3.188179e+003,9.417352e+002
3.189144e+003,9.468887e+002
3.190108e+003,9.445905e+002
3.191072e+003,9.443570e+002
3.192036e+003,9.482612e+002
3.193001e+003,9.493169e+002
3.193965e+003,9.478775e+002
3.194929e+003,9.454965e+002
3.195893e+003,9.436046e+002
3.196858e+003,9.451456e+002
3.197822e+003,9.490880e+002
3.198786e+003,9.545286e+002
3.199750e+003,9.584184e+002
3.200715e+003,9.559462e+002
3.201679e+003,9.514397e+002
3.202643e+003,9.521292e+002
3.203607e+003,9.558217e+002
3.204572e+003,9.645305e+002
3.205536e+003,9.684419e+002
3.206500e+003,9.601636e+002
3.207464e+003,9.555444e+002
3.208428e+003,9.596296e+002
3.209393e+003,9.678666e+002
3.210357e+003,9.773729e+002
3.211321e+003,9.789557e+002
3.212285e+003,9.662664e+002
3.213250e+003,9.627241e+002
3.214214e+003,9.722195e+002
3.215178e+003,9.715523e+002
3.216142e+003,9.634761e+002
3.217106e+003,9.651202e+002
3.218071e+003,9.730945e+002
3.219035e+003,9.759282e+002
3.219999e+003,9.761024e+002
3.220963e+003,9.821639e+002
3.221928e+003,9.897445e+002
3.222892e+003,9.904308e+002
3.223856e+003,9.875828e+002
3.224820e+003,9.853528e+002
3.225785e+003,9.844470e+002
3.226749e+003,9.841419e+002
3.227713e+003,9.885390e+002
3.228677e+003,1.000105e+003
3.229642e+003,1.009120e+003
3.230606e+003,1.011706e+003
3.231570e+003,1.008825e+003
3.232534e+003,1.000939e+003
3.233499e+003,9.970236e+002
3.234463e+003,1.001466e+003
3.235427e+003,1.005399e+003
3.236391e+003,1.008670e+003
3.237355e+003,1.004643e+003
3.238320e+003,9.978269e+002
3.239284e+003,1.003228e+003
3.240248e+003,1.015376e+003
3.241212e+003,1.019982e+003
3.242177e+003,1.020544e+003
3.243141e+003,1.022961e+003
3.244105e+003,1.027163e+003
3.245069e+003,1.035190e+003
3.246033e+003,1.041809e+003
3.246998e+003,1.040329e+003
3.247962e+003,1.037416e+003
3.248926e+003,1.035532e+003
3.249890e+003,1.034977e+003
3.250855e+003,1.035840e+003
3.251819e+003,1.039148e+003
3.252783e+003,1.044792e+003
3.253747e+003,1.047584e+003
3.254712e+003,1.045207e+003
3.255676e+003,1.041656e+003
3.256640e+003,1.036805e+003
3.257604e+003,1.043083e+003
3.258569e+003,1.055318e+003
3.259533e+003,1.054261e+003
3.260497e+003,1.047869e+003
3.261461e+003,1.054004e+003
3.262426e+003,1.065141e+003
3.263390e+003,1.070302e+003
3.264354e+003,1.072515e+003
3.265318e+003,1.075854e+003
3.266282e+003,1.078997e+003
3.267247e+003,1.079809e+003
3.268211e+003,1.081190e+003
3.269175e+003,1.085130e+003
3.270139e+003,1.087129e+003
3.271104e+003,1.086428e+003
3.272068e+003,1.087991e+003
3.273032e+003,1.093014e+003
3.273996e+003,1.099544e+003
3.274960e+003,1.106792e+003
3.275925e+003,1.111742e+003
3.276889e+003,1.114311e+003
3.277853e+003,1.111310e+003
3.278817e+003,1.105631e+003
3.279782e+003,1.105684e+003
3.280746e+003,1.108271e+003
3.281710e+003,1.108557e+003
3.282674e+003,1.108318e+003
3.283639e+003,1.109278e+003
3.284603e+003,1.111159e+003
3.285567e+003,1.113943e+003
3.286531e+003,1.115699e+003
3.287496e+003,1.112652e+003
3.288460e+003,1.112205e+003
3.289424e+003,1.117096e+003
3.290388e+003,1.121077e+003
3.291353e+003,1.123414e+003
3.292317e+003,1.124890e+003
3.293281e+003,1.125546e+003
3.294245e+003,1.125390e+003
3.295209e+003,1.123532e+003
3.296174e+003,1.115713e+003
3.297138e+003,1.105679e+003
3.298102e+003,1.112472e+003
3.299066e+003,1.125695e+003
3.300031e+003,1.123545e+003
3.300995e+003,1.119645e+003
3.301959e+003,1.129424e+003
3.302923e+003,1.138670e+003
3.303887e+003,1.141176e+003
3.304852e+003,1.141949e+003
3.305816e+003,1.143892e+003
3.306780e+003,1.145811e+003
3.307744e+003,1.147589e+003
3.308709e+003,1.146644e+003
3.309673e+003,1.142155e+003
3.310637e+003,1.143399e+003
3.311601e+003,1.149104e+003
3.312566e+003,1.152929e+003
3.313530e+003,1.154537e+003
3.314494e+003,1.155359e+003
3.315458e+003,1.154502e+003
3.316423e+003,1.149370e+003
3.317387e+003,1.145077e+003
3.318351e+003,1.153231e+003
3.319315e+003,1.162597e+003
3.320280e+003,1.159270e+003
3.321244e+003,1.157598e+003
3.322208e+003,1.164068e+003
3.323172e+003,1.165885e+003
3.324136e+003,1.160564e+003
3.325101e+003,1.158401e+003
3.326065e+003,1.162151e+003
3.327029e+003,1.165116e+003
3.327993e+003,1.165878e+003
3.328958e+003,1.172206e+003
3.329922e+003,1.182316e+003
3.330886e+003,1.181154e+003
3.331850e+003,1.175334e+003
3.332814e+003,1.176548e+003
3.333779e+003,1.180009e+003
3.334743e+003,1.180536e+003
3.335707e+003,1.179405e+003
3.336671e+003,1.177330e+003
3.337636e+003,1.178356e+003
3.338600e+003,1.186508e+003
3.339564e+003,1.195927e+003
3.340528e+003,1.205826e+003
3.341493e+003,1.212219e+003
3.342457e+003,1.214913e+003
3.343421e+003,1.212255e+003
3.344385e+003,1.207231e+003
3.345350e+003,1.209552e+003
3.346314e+003,1.217456e+003
3.347278e+003,1.222450e+003
3.348242e+003,1.225010e+003
3.349207e+003,1.226920e+003
3.350171e+003,1.227173e+003
3.351135e+003,1.221257e+003
3.352099e+003,1.217296e+003
3.353063e+003,1.222084e+003
3.354028e+003,1.228309e+003
3.354992e+003,1.234177e+003
3.355956e+003,1.235048e+003
3.356920e+003,1.230387e+003
3.357885e+003,1.229269e+003
3.358849e+003,1.234857e+003
3.359813e+003,1.237239e+003
3.360777e+003,1.236426e+003
3.361741e+003,1.239951e+003
3.362706e+003,1.245714e+003
3.363670e+003,1.251767e+003
3.364634e+003,1.254273e+003
3.365598e+003,1.245997e+003
3.366563e+003,1.239479e+003
3.367527e+003,1.243386e+003
3.368491e+003,1.252163e+003
3.369455e+003,1.263290e+003
3.370420e+003,1.267734e+003
3.371384e+003,1.251374e+003
3.372348e+003,1.251156e+003
3.373312e+003,1.267624e+003
3.374277e+003,1.280831e+003
3.375241e+003,1.287264e+003
3.376205e+003,1.281939e+003
3.377169e+003,1.270932e+003
3.378134e+003,1.268287e+003
3.379098e+003,1.272131e+003
3.380062e+003,1.280586e+003
3.381026e+003,1.288221e+003
3.381990e+003,1.285624e+003
3.382955e+003,1.281968e+003
3.383919e+003,1.282735e+003
3.384883e+003,1.280068e+003
3.385847e+003,1.272831e+003
3.386812e+003,1.273535e+003
3.387776e+003,1.283973e+003
3.388740e+003,1.292209e+003
3.389704e+003,1.294851e+003
3.390668e+003,1.290238e+003
3.391633e+003,1.280575e+003
3.392597e+003,1.279458e+003
3.393561e+003,1.282605e+003
3.394525e+003,1.285781e+003
3.395490e+003,1.286667e+003
3.396454e+003,1.283500e+003
3.397418e+003,1.280413e+003
3.398382e+003,1.279759e+003
3.399347e+003,1.283014e+003
3.400311e+003,1.292222e+003
3.401275e+003,1.297552e+003
3.402239e+003,1.295854e+003
3.403204e+003,1.298983e+003
3.404168e+003,1.305718e+003
3.405132e+003,1.310978e+003
3.406096e+003,1.313195e+003
3.407061e+003,1.307001e+003
3.408025e+003,1.301538e+003
3.408989e+003,1.307899e+003
3.409953e+003,1.315837e+003
3.410917e+003,1.311654e+003
3.411882e+003,1.307431e+003
3.412846e+003,1.314286e+003
3.413810e+003,1.318142e+003
3.414774e+003,1.317024e+003
3.415739e+003,1.312742e+003
3.416703e+003,1.307723e+003
3.417667e+003,1.310850e+003
3.418631e+003,1.320395e+003
3.419595e+003,1.324838e+003
3.420560e+003,1.325641e+003
3.421524e+003,1.328180e+003
3.422488e+003,1.329907e+003
3.423452e+003,1.324389e+003
3.424417e+003,1.319771e+003
3.425381e+003,1.321331e+003
3.426345e+003,1.324119e+003
3.427309e+003,1.326670e+003
3.428274e+003,1.327133e+003
3.429238e+003,1.325276e+003
3.430202e+003,1.324080e+003
3.431166e+003,1.324340e+003
3.432131e+003,1.329644e+003
3.433095e+003,1.337630e+003
3.434059e+003,1.336467e+003
3.435023e+003,1.332521e+003
3.435988e+003,1.333174e+003
3.436952e+003,1.338317e+003
3.437916e+003,1.348129e+003
3.438880e+003,1.354398e+003
3.439844e+003,1.352348e+003
3.440809e+003,1.353502e+003
3.441773e+003,1.366352e+003
3.442737e+003,1.372303e+003
3.443701e+003,1.370338e+003
3.444666e+003,1.371962e+003
3.445630e+003,1.375009e+003
3.446594e+003,1.370369e+003
3.447558e+003,1.364369e+003
3.448522e+003,1.366714e+003
3.449487e+003,1.373294e+003
3.450451e+003,1.380515e+003
3.451415e+003,1.386634e+003
3.452379e+003,1.389476e+003
3.453344e+003,1.391736e+003
3.454308e+003,1.394053e+003
3.455272e+003,1.396130e+003
3.456236e+003,1.398160e+003
3.457201e+003,1.400762e+003
3.458165e+003,1.404654e+003
3.459129e+003,1.413525e+003
3.460093e+003,1.422495e+003
3.461058e+003,1.422650e+003
3.462022e+003,1.419417e+003
3.462986e+003,1.422213e+003
3.463950e+003,1.424832e+003
3.464915e+003,1.421785e+003
3.465879e+003,1.419892e+003
3.466843e+003,1.420286e+003
3.467807e+003,1.426491e+003
3.468771e+003,1.436916e+003
3.469736e+003,1.441178e+003
3.470700e+003,1.438999e+003
3.471664e+003,1.439913e+003
3.472628e+003,1.443623e+003
3.473593e+003,1.450465e+003
3.474557e+003,1.457994e+003
3.475521e+003,1.464225e+003
3.476485e+003,1.468849e+003
3.477449e+003,1.471996e+003
3.478414e+003,1.471521e+003
3.479378e+003,1.467596e+003
3.480342e+003,1.467732e+003
3.481306e+003,1.474478e+003
3.482271e+003,1.480265e+003
3.483235e+003,1.484999e+003
3.484199e+003,1.492175e+003
3.485163e+003,1.498404e+003
3.486128e+003,1.495414e+003
3.487092e+003,1.492473e+003
3.488056e+003,1.495917e+003
3.489020e+003,1.503653e+003
3.489985e+003,1.514243e+003
3.490949e+003,1.517779e+003
3.491913e+003,1.507285e+003
3.492877e+003,1.504389e+003
3.493842e+003,1.510827e+003
3.494806e+003,1.514258e+003
3.495770e+003,1.516038e+003
3.496734e+003,1.521266e+003
3.497698e+003,1.525920e+003
3.498663e+003,1.524226e+003
3.499627e+003,1.523282e+003
3.500591e+003,0.000000e+000
