9.974011e+001,3.711065e+002
1.007043e+002,3.711804e+002
1.016686e+002,3.716303e+002
1.026328e+002,3.720580e+002
1.035970e+002,3.727283e+002
1.045613e+002,3.749483e+002
1.055255e+002,3.775049e+002
1.064897e+002,3.778611e+002
1.074540e+002,3.733915e+002
1.084182e+002,3.689018e+002
1.093824e+002,3.642555e+002
1.103467e+002,3.595401e+002
1.113109e+002,3.551939e+002
1.122751e+002,3.530506e+002
1.132394e+002,3.521613e+002
1.142036e+002,3.518751e+002
1.151678e+002,3.516462e+002
1.161321e+002,3.511379e+002
1.170963e+002,3.502524e+002
1.180605e+002,3.489505e+002
1.190248e+002,3.475529e+002
1.199890e+002,3.465132e+002
1.209532e+002,3.467138e+002
1.219175e+002,3.454101e+002
1.228817e+002,3.414260e+002
1.238459e+002,3.363003e+002
1.248102e+002,3.331292e+002
1.257744e+002,3.346065e+002
1.267386e+002,3.352036e+002
1.277029e+002,3.337705e+002
1.286671e+002,3.304549e+002
1.296313e+002,3.268262e+002
1.305956e+002,3.238133e+002
1.315598e+002,3.213615e+002
1.325240e+002,3.197383e+002
1.334883e+002,3.190737e+002
1.344525e+002,3.191787e+002
1.354167e+002,3.196165e+002
1.363810e+002,3.199561e+002
1.373452e+002,3.195136e+002
1.383094e+002,3.176969e+002
1.392737e+002,3.141904e+002
1.402379e+002,3.119396e+002
1.412021e+002,3.111545e+002
1.421664e+002,3.110975e+002
1.431306e+002,3.107325e+002
1.440948e+002,3.100839e+002
1.450591e+002,3.095280e+002
1.460233e+002,3.087602e+002
1.469875e+002,3.078308e+002
1.479518e+002,3.070130e+002
1.489160e+002,3.065461e+002
1.498802e+002,3.059749e+002
1.508445e+002,3.056669e+002
1.518087e+002,3.057402e+002
1.527729e+002,3.060500e+002
1.537372e+002,3.054390e+002
1.547014e+002,3.037698e+002
1.556656e+002,3.010501e+002
1.566299e+002,2.973719e+002
1.575941e+002,2.928978e+002
1.585583e+002,2.895298e+002
1.595226e+002,2.872174e+002
1.604868e+002,2.857693e+002
1.614510e+002,2.850387e+002
1.624153e+002,2.852232e+002
1.633795e+002,2.847207e+002
1.643438e+002,2.837013e+002
1.653080e+002,2.824351e+002
1.662722e+002,2.811443e+002
1.672365e+002,2.794129e+002
1.682007e+002,2.780369e+002
1.691649e+002,2.778725e+002
1.701292e+002,2.787166e+002
1.710934e+002,2.798271e+002
1.720576e+002,2.791956e+002
1.730219e+002,2.776984e+002
1.739861e+002,2.768473e+002
1.749503e+002,2.770074e+002
1.759146e+002,2.778037e+002
1.768788e+002,2.760994e+002
1.778430e+002,2.722101e+002
1.788073e+002,2.685995e+002
1.797715e+002,2.666137e+002
1.807357e+002,2.667348e+002
1.817000e+002,2.672235e+002
1.826642e+002,2.670707e+002
1.836284e+002,2.666613e+002
1.845927e+002,2.664360e+002
1.855569e+002,2.669517e+002
1.865211e+002,2.665603e+002
1.874854e+002,2.648149e+002
1.884496e+002,2.624421e+002
1.894138e+002,2.601414e+002
1.903781e+002,2.585681e+002
1.913423e+002,2.578439e+002
1.923065e+002,2.577338e+002
1.932708e+002,2.579622e+002
1.942350e+002,2.581573e+002
1.951992e+002,2.576896e+002
1.961635e+002,2.566793e+002
1.971277e+002,2.557791e+002
1.980919e+002,2.552156e+002
1.990562e+002,2.550076e+002
2.000204e+002,2.546615e+002
2.009846e+002,2.536932e+002
2.019489e+002,2.527310e+002
2.029131e+002,2.521918e+002
2.038773e+002,2.522369e+002
2.048416e+002,2.521289e+002
2.058058e+002,2.506740e+002
2.067700e+002,2.489371e+002
2.077343e+002,2.477272e+002
2.086985e+002,2.476288e+002
2.096627e+002,2.483253e+002
2.106270e+002,2.485771e+002
2.115912e+002,2.484798e+002
2.125554e+002,2.480836e+002
2.135197e+002,2.473587e+002
2.144839e+002,2.455924e+002
2.154481e+002,2.450420e+002
2.164124e+002,2.473654e+002
2.173766e+002,2.506409e+002
2.183408e+002,2.515585e+002
2.193051e+002,2.464896e+002
2.202693e+002,2.427144e+002
2.212335e+002,2.422652e+002
2.221978e+002,2.440590e+002
2.231620e+002,2.456844e+002
2.241262e+002,2.447464e+002
2.250904e+002,2.433589e+002
2.260547e+002,2.424572e+002
2.270189e+002,2.420663e+002
2.279831e+002,2.417887e+002
2.289474e+002,2.409623e+002
2.299116e+002,2.399724e+002
2.308758e+002,2.393035e+002
2.318401e+002,2.391948e+002
2.328043e+002,2.397397e+002
2.337685e+002,2.408447e+002
2.347328e+002,2.427590e+002
2.356970e+002,2.437703e+002
2.366612e+002,2.428867e+002
2.376255e+002,2.397470e+002
2.385897e+002,2.375198e+002
2.395539e+002,2.374996e+002
2.405182e+002,2.383390e+002
2.414824e+002,2.394000e+002
2.424466e+002,2.403423e+002
2.434109e+002,2.410647e+002
2.443751e+002,2.411038e+002
2.453393e+002,2.407177e+002
2.463036e+002,2.403963e+002
2.472678e+002,2.407310e+002
2.482320e+002,2.419590e+002
2.491963e+002,2.425886e+002
2.501605e+002,2.422524e+002
2.511247e+002,2.415910e+002
2.520890e+002,2.417060e+002
2.530532e+002,2.434310e+002
2.540174e+002,2.447838e+002
2.549817e+002,2.457997e+002
2.559459e+002,2.467173e+002
2.569102e+002,2.478149e+002
2.578744e+002,2.488118e+002
2.588386e+002,2.492065e+002
2.598029e+002,2.492995e+002
2.607671e+002,2.492837e+002
2.617313e+002,2.493487e+002
2.626956e+002,2.498662e+002
2.636598e+002,2.504110e+002
2.646240e+002,2.496675e+002
2.655883e+002,2.473318e+002
2.665525e+002,2.439948e+002
2.675167e+002,2.434389e+002
2.684810e+002,2.470153e+002
2.694452e+002,2.499531e+002
2.704094e+002,2.502678e+002
2.713737e+002,2.477974e+002
2.723379e+002,2.473023e+002
2.733021e+002,2.509329e+002
2.742664e+002,2.541021e+002
2.752306e+002,2.551217e+002
2.761948e+002,2.536159e+002
2.771591e+002,2.518843e+002
2.781233e+002,2.519671e+002
2.790875e+002,2.527530e+002
2.800518e+002,2.534228e+002
2.810160e+002,2.534758e+002
2.819802e+002,2.531688e+002
2.829445e+002,2.536699e+002
2.839087e+002,2.547590e+002
2.848729e+002,2.559893e+002
2.858372e+002,2.570694e+002
2.868014e+002,2.581052e+002
2.877656e+002,2.584940e+002
2.887299e+002,2.570014e+002
2.896941e+002,2.553929e+002
2.906583e+002,2.555078e+002
2.916226e+002,2.590416e+002
2.925868e+002,2.612038e+002
2.935510e+002,2.600920e+002
2.945153e+002,2.579205e+002
2.954795e+002,2.566331e+002
2.964437e+002,2.575656e+002
2.974080e+002,2.590485e+002
2.983722e+002,2.596219e+002
2.993364e+002,2.597155e+002
3.003007e+002,2.598209e+002
3.012649e+002,2.604522e+002
3.022291e+002,2.614272e+002
3.031934e+002,2.615884e+002
3.041576e+002,2.608422e+002
3.051218e+002,2.598419e+002
3.060861e+002,2.595601e+002
3.070503e+002,2.597218e+002
3.080145e+002,2.603499e+002
3.089788e+002,2.628408e+002
3.099430e+002,2.660009e+002
3.109072e+002,2.676480e+002
3.118715e+002,2.653141e+002
3.128357e+002,2.635611e+002
3.137999e+002,2.639353e+002
3.147642e+002,2.655576e+002
3.157284e+002,2.669019e+002
3.166926e+002,2.663831e+002
3.176569e+002,2.652884e+002
3.186211e+002,2.648811e+002
3.195853e+002,2.652225e+002
3.205496e+002,2.662039e+002
3.215138e+002,2.677654e+002
3.224780e+002,2.702771e+002
3.234423e+002,2.715739e+002
3.244065e+002,2.709402e+002
3.253707e+002,2.688930e+002
3.263350e+002,2.673567e+002
3.272992e+002,2.667447e+002
3.282634e+002,2.670114e+002
3.292277e+002,2.682280e+002
3.301919e+002,2.702584e+002
3.311561e+002,2.728214e+002
3.321204e+002,2.765898e+002
3.330846e+002,2.798039e+002
3.340488e+002,2.814714e+002
3.350131e+002,2.815066e+002
3.359773e+002,2.803515e+002
3.369415e+002,2.785945e+002
3.379058e+002,2.766595e+002
3.388700e+002,2.755388e+002
3.398342e+002,2.755127e+002
3.407985e+002,2.765359e+002
3.417627e+002,2.782702e+002
3.427269e+002,2.811838e+002
3.436912e+002,2.834248e+002
3.446554e+002,2.848428e+002
3.456196e+002,2.855890e+002
3.465839e+002,2.859470e+002
3.475481e+002,2.851869e+002
3.485123e+002,2.848877e+002
3.494765e+002,2.856321e+002
3.504408e+002,2.871895e+002
3.514050e+002,2.885723e+002
3.523692e+002,2.883410e+002
3.533335e+002,2.876470e+002
3.542977e+002,2.874427e+002
3.552619e+002,2.880883e+002
3.562262e+002,2.895576e+002
3.571904e+002,2.914650e+002
3.581546e+002,2.938346e+002
3.591189e+002,2.952366e+002
3.600831e+002,2.945549e+002
3.610473e+002,2.918338e+002
3.620116e+002,2.902255e+002
3.629758e+002,2.912801e+002
3.639400e+002,2.925640e+002
3.649043e+002,2.937430e+002
3.658685e+002,2.946231e+002
3.668327e+002,2.949526e+002
3.677970e+002,2.937025e+002
3.687612e+002,2.925336e+002
3.697254e+002,2.921278e+002
3.706897e+002,2.926784e+002
3.716539e+002,2.939785e+002
3.726181e+002,2.959234e+002
3.735824e+002,2.979718e+002
3.745466e+002,2.990776e+002
3.755108e+002,2.989245e+002
3.764751e+002,2.978728e+002
3.774393e+002,2.979204e+002
3.784035e+002,3.002269e+002
3.793678e+002,3.018470e+002
3.803320e+002,3.021332e+002
3.812962e+002,3.013077e+002
3.822605e+002,3.004756e+002
3.832247e+002,2.995267e+002
3.841889e+002,2.989696e+002
3.851532e+002,2.991895e+002
3.861174e+002,3.000265e+002
3.870816e+002,3.008473e+002
3.880459e+002,3.004960e+002
3.890101e+002,2.998225e+002
3.899743e+002,2.999972e+002
3.909386e+002,3.012995e+002
3.919028e+002,3.033722e+002
3.928670e+002,3.047480e+002
3.938313e+002,3.049341e+002
3.947955e+002,3.045198e+002
3.957597e+002,3.034837e+002
3.967240e+002,3.020207e+002
3.976882e+002,3.007239e+002
3.986524e+002,2.991345e+002
3.996167e+002,2.986796e+002
4.005809e+002,3.000613e+002
4.015451e+002,3.025228e+002
4.025094e+002,3.043376e+002
4.034736e+002,3.037132e+002
4.044378e+002,3.032342e+002
4.054021e+002,3.045840e+002
4.063663e+002,3.073990e+002
4.073305e+002,3.104416e+002
4.082948e+002,3.117063e+002
4.092590e+002,3.112676e+002
4.102232e+002,3.111511e+002
4.111875e+002,3.114988e+002
4.121517e+002,3.120886e+002
4.131159e+002,3.125003e+002
4.140802e+002,3.133524e+002
4.150444e+002,3.144892e+002
4.160086e+002,3.160166e+002
4.169729e+002,3.175310e+002
4.179371e+002,3.182248e+002
4.189013e+002,3.163384e+002
4.198656e+002,3.143206e+002
4.208298e+002,3.142104e+002
4.217940e+002,3.151582e+002
4.227583e+002,3.157522e+002
4.237225e+002,3.145093e+002
4.246867e+002,3.130399e+002
4.256510e+002,3.141418e+002
4.266152e+002,3.171749e+002
4.275794e+002,3.202727e+002
4.285437e+002,3.212098e+002
4.295079e+002,3.190111e+002
4.304721e+002,3.181629e+002
4.314364e+002,3.195721e+002
4.324006e+002,3.220263e+002
4.333648e+002,3.243747e+002
4.343291e+002,3.264959e+002
4.352933e+002,3.272574e+002
4.362575e+002,3.258404e+002
4.372218e+002,3.240033e+002
4.381860e+002,3.232221e+002
4.391502e+002,3.243257e+002
4.401145e+002,3.261201e+002
4.410787e+002,3.272538e+002
4.420429e+002,3.282797e+002
4.430072e+002,3.296712e+002
4.439714e+002,3.316071e+002
4.449356e+002,3.337048e+002
4.458999e+002,3.346853e+002
4.468641e+002,3.349352e+002
4.478283e+002,3.344998e+002
4.487926e+002,3.332492e+002
4.497568e+002,3.312078e+002
4.507210e+002,3.303154e+002
4.516853e+002,3.304684e+002
4.526495e+002,3.305049e+002
4.536137e+002,3.302192e+002
4.545780e+002,3.296677e+002
4.555422e+002,3.290026e+002
4.565064e+002,3.279082e+002
4.574707e+002,3.274925e+002
4.584349e+002,3.288214e+002
4.593991e+002,3.315811e+002
4.603634e+002,3.342191e+002
4.613276e+002,3.332127e+002
4.622918e+002,3.293919e+002
4.632561e+002,3.267997e+002
4.642203e+002,3.264508e+002
4.651845e+002,3.277999e+002
4.661488e+002,3.288741e+002
4.671130e+002,3.295828e+002
4.680772e+002,3.293629e+002
4.690415e+002,3.278780e+002
4.700057e+002,3.258189e+002
4.709699e+002,3.242932e+002
4.719342e+002,3.238765e+002
4.728984e+002,3.236216e+002
4.738626e+002,3.229328e+002
4.748269e+002,3.220227e+002
4.757911e+002,3.213754e+002
4.767553e+002,3.215853e+002
4.777196e+002,3.225046e+002
4.786838e+002,3.225753e+002
4.796480e+002,3.216785e+002
4.806123e+002,3.209186e+002
4.815765e+002,3.218045e+002
4.825407e+002,3.256637e+002
4.835050e+002,3.272023e+002
4.844692e+002,3.254010e+002
4.854334e+002,3.228604e+002
4.863977e+002,3.208092e+002
4.873619e+002,3.189148e+002
4.883261e+002,3.174222e+002
4.892904e+002,3.183283e+002
4.902546e+002,3.196283e+002
4.912188e+002,3.195878e+002
4.921831e+002,3.176048e+002
4.931473e+002,3.149894e+002
4.941115e+002,3.144238e+002
4.950758e+002,3.148538e+002
4.960400e+002,3.154744e+002
4.970042e+002,3.160564e+002
4.979685e+002,3.165606e+002
4.989327e+002,3.162552e+002
4.998969e+002,3.139008e+002
5.008612e+002,3.121269e+002
5.018254e+002,3.116367e+002
5.027896e+002,3.119991e+002
5.037539e+002,3.119658e+002
5.047181e+002,3.116116e+002
5.056823e+002,3.115165e+002
5.066466e+002,3.114482e+002
5.076108e+002,3.116817e+002
5.085750e+002,3.127464e+002
5.095393e+002,3.153360e+002
5.105035e+002,3.174456e+002
5.114677e+002,3.170265e+002
5.124320e+002,3.152080e+002
5.133962e+002,3.137361e+002
5.143605e+002,3.141342e+002
5.153247e+002,3.161955e+002
5.162889e+002,3.178467e+002
5.172532e+002,3.189325e+002
5.182174e+002,3.207648e+002
5.191816e+002,3.245596e+002
5.201459e+002,3.307104e+002
5.211101e+002,3.358045e+002
5.220743e+002,3.389518e+002
5.230386e+002,3.413031e+002
5.240028e+002,3.432654e+002
5.249670e+002,3.453954e+002
5.259313e+002,3.487420e+002
5.268955e+002,3.548591e+002
5.278597e+002,3.608529e+002
5.288240e+002,3.648329e+002
5.297882e+002,3.667360e+002
5.307524e+002,3.676970e+002
5.317167e+002,3.698180e+002
5.326809e+002,3.738294e+002
5.336451e+002,3.789032e+002
5.346094e+002,3.846736e+002
5.355736e+002,3.904133e+002
5.365378e+002,3.953023e+002
5.375021e+002,3.994358e+002
5.384663e+002,4.043349e+002
5.394305e+002,4.107605e+002
5.403948e+002,4.173452e+002
5.413590e+002,4.226078e+002
5.423232e+002,4.255557e+002
5.432875e+002,4.274504e+002
5.442517e+002,4.302496e+002
5.452159e+002,4.338502e+002
5.461802e+002,4.374997e+002
5.471444e+002,4.404867e+002
5.481086e+002,4.425535e+002
5.490729e+002,4.453421e+002
5.500371e+002,4.494863e+002
5.510013e+002,4.520579e+002
5.519656e+002,4.510832e+002
5.529298e+002,4.472204e+002
5.538940e+002,4.459979e+002
5.548583e+002,4.498301e+002
5.558225e+002,4.522291e+002
5.567867e+002,4.524774e+002
5.577510e+002,4.511946e+002
5.587152e+002,4.495482e+002
5.596794e+002,4.480581e+002
5.606437e+002,4.471399e+002
5.616079e+002,4.472182e+002
5.625721e+002,4.474183e+002
5.635364e+002,4.463653e+002
5.645006e+002,4.428529e+002
5.654648e+002,4.373365e+002
5.664291e+002,4.334860e+002
5.673933e+002,4.319016e+002
5.683575e+002,4.312444e+002
5.693218e+002,4.300392e+002
5.702860e+002,4.274183e+002
5.712502e+002,4.247892e+002
5.722145e+002,4.226169e+002
5.731787e+002,4.202300e+002
5.741429e+002,4.183335e+002
5.751072e+002,4.169137e+002
5.760714e+002,4.146959e+002
5.770356e+002,4.094340e+002
5.779999e+002,4.046308e+002
5.789641e+002,4.017188e+002
5.799283e+002,4.002018e+002
5.808926e+002,3.990789e+002
5.818568e+002,3.975027e+002
5.828210e+002,3.953064e+002
5.837853e+002,3.926862e+002
5.847495e+002,3.899065e+002
5.857137e+002,3.868810e+002
5.866780e+002,3.833402e+002
5.876422e+002,3.789929e+002
5.886064e+002,3.751053e+002
5.895707e+002,3.712385e+002
5.905349e+002,3.682672e+002
5.914991e+002,3.670128e+002
5.924634e+002,3.672301e+002
5.934276e+002,3.667374e+002
5.943918e+002,3.631907e+002
5.953560e+002,3.596784e+002
5.963203e+002,3.580905e+002
5.972845e+002,3.579055e+002
5.982487e+002,3.570352e+002
5.992130e+002,3.526892e+002
6.001772e+002,3.460962e+002
6.011414e+002,3.426519e+002
6.021057e+002,3.420924e+002
6.030699e+002,3.417233e+002
6.040341e+002,3.385319e+002
6.049984e+002,3.316087e+002
6.059626e+002,3.256523e+002
6.069268e+002,3.215934e+002
6.078911e+002,3.184418e+002
6.088553e+002,3.152810e+002
6.098195e+002,3.116223e+002
6.107838e+002,3.078730e+002
6.117480e+002,3.046545e+002
6.127122e+002,3.020990e+002
6.136765e+002,3.007151e+002
6.146407e+002,2.998625e+002
6.156049e+002,2.979791e+002
6.165692e+002,2.928157e+002
6.175334e+002,2.849887e+002
6.184976e+002,2.793525e+002
6.194619e+002,2.764423e+002
6.204261e+002,2.748838e+002
6.213903e+002,2.728471e+002
6.223546e+002,2.697709e+002
6.233188e+002,2.669020e+002
6.242830e+002,2.635826e+002
6.252473e+002,2.607665e+002
6.262115e+002,2.598093e+002
6.271757e+002,2.608388e+002
6.281400e+002,2.609740e+002
6.291042e+002,2.565377e+002
6.300684e+002,2.515054e+002
6.310327e+002,2.479229e+002
6.319969e+002,2.459504e+002
6.329611e+002,2.445544e+002
6.339254e+002,2.422719e+002
6.348896e+002,2.388254e+002
6.358538e+002,2.357331e+002
6.368181e+002,2.334082e+002
6.377823e+002,2.310576e+002
6.387465e+002,2.274915e+002
6.397108e+002,2.219431e+002
6.406750e+002,2.179462e+002
6.416392e+002,2.154301e+002
6.426035e+002,2.134979e+002
6.435677e+002,2.124112e+002
6.445319e+002,2.120588e+002
6.454962e+002,2.111396e+002
6.464604e+002,2.079342e+002
6.474246e+002,2.044380e+002
6.483889e+002,2.017923e+002
6.493531e+002,1.998290e+002
6.503173e+002,1.979423e+002
6.512816e+002,1.955867e+002
6.522458e+002,1.928640e+002
6.532100e+002,1.897732e+002
6.541743e+002,1.862688e+002
6.551385e+002,1.831753e+002
6.561027e+002,1.812574e+002
6.570670e+002,1.806527e+002
6.580312e+002,1.792223e+002
6.589954e+002,1.751696e+002
6.599597e+002,1.715069e+002
6.609239e+002,1.702153e+002
6.618881e+002,1.709314e+002
6.628524e+002,1.714148e+002
6.638166e+002,1.699444e+002
6.647808e+002,1.674296e+002
6.657451e+002,1.639566e+002
6.667093e+002,1.599667e+002
6.676735e+002,1.566915e+002
6.686378e+002,1.554150e+002
6.696020e+002,1.560130e+002
6.705662e+002,1.543561e+002
6.715305e+002,1.499938e+002
6.724947e+002,1.454146e+002
6.734589e+002,1.420262e+002
6.744232e+002,1.399259e+002
6.753874e+002,1.381192e+002
6.763516e+002,1.360640e+002
6.773159e+002,1.345342e+002
6.782801e+002,1.342125e+002
6.792443e+002,1.341328e+002
6.802086e+002,1.325724e+002
6.811728e+002,1.280627e+002
6.821370e+002,1.230397e+002
6.831013e+002,1.218178e+002
6.840655e+002,1.228375e+002
6.850297e+002,1.228568e+002
6.859940e+002,1.197835e+002
6.869582e+002,1.142092e+002
6.879224e+002,1.107335e+002
6.888867e+002,1.102398e+002
6.898509e+002,1.095994e+002
6.908151e+002,1.083807e+002
6.917794e+002,1.069412e+002
6.927436e+002,1.058763e+002
6.937078e+002,1.054977e+002
6.946721e+002,1.047272e+002
6.956363e+002,1.031920e+002
6.966005e+002,1.014229e+002
6.975648e+002,9.963297e+001
6.985290e+002,9.780795e+001
6.994932e+002,9.593153e+001
7.004575e+002,9.498463e+001
7.014217e+002,9.432061e+001
7.023859e+002,9.234674e+001
7.033502e+002,8.867386e+001
7.043144e+002,8.437161e+001
7.052786e+002,8.163379e+001
7.062429e+002,8.111105e+001
7.072071e+002,8.036815e+001
7.081713e+002,7.973136e+001
7.091356e+002,7.906384e+001
7.100998e+002,7.797233e+001
7.110640e+002,7.618441e+001
7.120283e+002,7.463251e+001
7.129925e+002,7.404365e+001
7.139567e+002,7.374931e+001
7.149210e+002,7.373027e+001
7.158852e+002,7.373695e+001
7.168494e+002,7.323212e+001
7.178137e+002,7.144864e+001
7.187779e+002,6.880682e+001
7.197421e+002,6.715180e+001
7.207064e+002,6.639452e+001
7.216706e+002,6.606928e+001
7.226348e+002,6.601146e+001
7.235991e+002,6.648434e+001
7.245633e+002,6.650934e+001
7.255275e+002,6.494421e+001
7.264918e+002,6.355685e+001
7.274560e+002,6.336478e+001
7.284202e+002,6.410003e+001
7.293845e+002,6.456089e+001
7.303487e+002,6.375214e+001
7.313129e+002,6.281361e+001
7.322772e+002,6.281747e+001
7.332414e+002,6.333686e+001
7.342056e+002,6.382661e+001
7.351699e+002,6.396661e+001
7.361341e+002,6.384177e+001
7.370983e+002,6.315997e+001
7.380626e+002,6.131347e+001
7.390268e+002,6.030531e+001
7.399910e+002,6.149189e+001
7.409553e+002,6.416196e+001
7.419195e+002,6.613582e+001
7.428837e+002,6.692441e+001
7.438480e+002,6.682304e+001
7.448122e+002,6.581219e+001
7.457764e+002,6.484464e+001
7.467407e+002,6.457755e+001
7.477049e+002,6.521136e+001
7.486691e+002,6.651706e+001
7.496334e+002,6.837811e+001
7.505976e+002,6.998974e+001
7.515618e+002,7.050911e+001
7.525261e+002,7.001758e+001
7.534903e+002,6.960847e+001
7.544545e+002,7.093133e+001
7.554188e+002,7.505451e+001
7.563830e+002,7.725746e+001
7.573472e+002,7.582332e+001
7.583115e+002,7.371795e+001
7.592757e+002,7.240655e+001
7.602399e+002,7.223619e+001
7.612042e+002,7.349931e+001
7.621684e+002,7.752100e+001
7.631326e+002,8.088396e+001
7.640969e+002,8.186469e+001
7.650611e+002,8.139085e+001
7.660253e+002,8.123480e+001
7.669896e+002,8.276627e+001
7.679538e+002,8.548598e+001
7.689180e+002,8.695781e+001
7.698823e+002,8.692741e+001
7.708465e+002,8.655318e+001
7.718107e+002,8.658662e+001
7.727750e+002,8.725049e+001
7.737392e+002,8.840185e+001
7.747034e+002,9.087220e+001
7.756677e+002,9.246905e+001
7.766319e+002,9.221069e+001
7.775961e+002,9.134404e+001
7.785604e+002,9.084801e+001
7.795246e+002,9.098342e+001
7.804888e+002,9.162371e+001
7.814531e+002,9.350991e+001
7.824173e+002,9.535341e+001
7.833815e+002,9.627964e+001
7.843458e+002,9.631863e+001
7.853100e+002,9.589937e+001
7.862742e+002,9.536230e+001
7.872385e+002,9.443990e+001
7.882027e+002,9.416521e+001
7.891669e+002,9.530396e+001
7.901312e+002,9.537955e+001
7.910954e+002,9.256364e+001
7.920596e+002,8.755927e+001
7.930239e+002,8.434103e+001
7.939881e+002,8.426379e+001
7.949523e+002,8.493181e+001
7.959166e+002,8.623505e+001
7.968808e+002,8.751958e+001
7.978450e+002,8.800559e+001
7.988093e+002,8.732082e+001
7.997735e+002,8.623098e+001
8.007377e+002,8.656195e+001
8.017020e+002,8.740192e+001
8.026662e+002,8.681808e+001
8.036304e+002,8.414914e+001
8.045947e+002,8.065447e+001
8.055589e+002,7.897395e+001
8.065231e+002,8.050632e+001
8.074874e+002,8.034914e+001
8.084516e+002,7.767130e+001
8.094158e+002,7.447795e+001
8.103801e+002,7.194604e+001
8.113443e+002,7.040085e+001
8.123085e+002,6.974845e+001
8.132728e+002,7.000404e+001
8.142370e+002,7.024084e+001
8.152012e+002,7.015939e+001
8.161655e+002,6.936782e+001
8.171297e+002,6.734676e+001
8.180939e+002,6.396387e+001
8.190582e+002,6.028285e+001
8.200224e+002,5.990637e+001
8.209866e+002,6.286481e+001
8.219509e+002,6.430153e+001
8.229151e+002,6.159779e+001
8.238793e+002,5.655180e+001
8.248436e+002,5.359373e+001
8.258078e+002,5.433040e+001
8.267720e+002,5.372590e+001
8.277363e+002,4.931369e+001
8.287005e+002,4.460347e+001
8.296647e+002,4.232129e+001
8.306290e+002,4.274846e+001
8.315932e+002,4.381103e+001
8.325574e+002,4.347929e+001
8.335217e+002,4.239310e+001
8.344859e+002,4.179869e+001
8.354501e+002,4.151353e+001
8.364144e+002,4.091364e+001
8.373786e+002,3.951423e+001
8.383428e+002,3.748238e+001
8.393071e+002,3.625227e+001
8.402713e+002,3.753055e+001
8.412355e+002,3.740663e+001
8.421998e+002,3.396613e+001
8.431640e+002,2.924619e+001
8.441282e+002,2.626335e+001
8.450925e+002,2.597963e+001
8.460567e+002,2.667390e+001
8.470209e+002,2.795863e+001
8.479852e+002,2.902845e+001
8.489494e+002,2.882895e+001
8.499136e+002,2.758242e+001
8.508779e+002,2.685191e+001
8.518421e+002,2.880141e+001
8.528063e+002,3.323936e+001
8.537706e+002,3.420222e+001
8.547348e+002,3.064770e+001
8.556990e+002,2.708016e+001
8.566633e+002,2.640836e+001
8.576275e+002,2.815124e+001
8.585917e+002,2.889883e+001
8.595560e+002,2.796379e+001
8.605202e+002,2.667307e+001
8.614844e+002,2.469262e+001
8.624487e+002,2.301109e+001
8.634129e+002,2.276147e+001
8.643771e+002,2.412833e+001
8.653414e+002,2.560777e+001
8.663056e+002,2.539836e+001
8.672698e+002,2.456023e+001
8.682341e+002,2.415469e+001
8.691983e+002,2.409908e+001
8.701625e+002,2.456108e+001
8.711268e+002,2.606110e+001
8.720910e+002,2.889913e+001
8.730552e+002,2.972236e+001
8.740195e+002,2.825820e+001
8.749837e+002,2.696588e+001
8.759479e+002,2.596479e+001
8.769122e+002,2.520232e+001
8.778764e+002,2.475915e+001
8.788406e+002,2.467089e+001
8.798049e+002,2.449400e+001
8.807691e+002,2.458247e+001
8.817333e+002,2.469910e+001
8.826976e+002,2.398428e+001
8.836618e+002,2.240660e+001
8.846260e+002,2.113367e+001
8.855903e+002,2.217277e+001
8.865545e+002,2.595251e+001
8.875187e+002,2.761642e+001
8.884830e+002,2.575888e+001
8.894472e+002,2.394714e+001
8.904114e+002,2.459595e+001
8.913757e+002,2.726421e+001
8.923399e+002,2.900317e+001
8.933041e+002,2.822358e+001
8.942684e+002,2.713641e+001
8.952326e+002,2.647200e+001
8.961968e+002,2.628848e+001
8.971611e+002,2.685313e+001
8.981253e+002,2.821388e+001
8.990895e+002,2.984542e+001
9.000538e+002,3.075573e+001
9.010180e+002,3.089062e+001
9.019822e+002,3.083907e+001
9.029465e+002,3.060194e+001
9.039107e+002,3.053474e+001
9.048749e+002,3.084783e+001
9.058392e+002,3.145570e+001
9.068034e+002,3.254070e+001
9.077676e+002,3.500220e+001
9.087319e+002,3.715205e+001
9.096961e+002,3.854531e+001
9.106603e+002,3.970361e+001
9.116246e+002,4.117883e+001
9.125888e+002,4.306380e+001
9.135530e+002,4.498347e+001
9.145173e+002,4.684672e+001
9.154815e+002,4.818927e+001
9.164457e+002,4.816029e+001
9.174100e+002,4.702246e+001
9.183742e+002,4.649409e+001
9.193384e+002,4.860479e+001
9.203027e+002,5.371994e+001
9.212669e+002,5.735632e+001
9.222311e+002,5.801282e+001
9.231954e+002,5.815994e+001
9.241596e+002,5.827029e+001
9.251238e+002,5.890783e+001
9.260881e+002,6.075620e+001
9.270523e+002,6.406335e+001
9.280165e+002,6.772881e+001
9.289808e+002,7.151245e+001
9.299450e+002,7.496738e+001
9.309092e+002,7.744054e+001
9.318735e+002,7.887758e+001
9.328377e+002,7.971352e+001
9.338019e+002,8.046160e+001
9.347662e+002,8.111766e+001
9.357304e+002,8.265639e+001
9.366946e+002,8.575202e+001
9.376589e+002,8.887374e+001
9.386231e+002,9.148316e+001
9.395873e+002,9.335403e+001
9.405516e+002,9.423706e+001
9.415158e+002,9.391297e+001
9.424800e+002,9.383153e+001
9.434443e+002,9.415160e+001
9.444085e+002,9.527322e+001
9.453727e+002,9.812746e+001
9.463370e+002,1.021912e+002
9.473012e+002,1.056803e+002
9.482654e+002,1.067810e+002
9.492297e+002,1.057709e+002
9.501939e+002,1.050200e+002
9.511581e+002,1.049398e+002
9.521224e+002,1.051807e+002
9.530866e+002,1.053829e+002
9.540508e+002,1.055647e+002
9.550151e+002,1.060311e+002
9.559793e+002,1.068043e+002
9.569435e+002,1.070014e+002
9.579078e+002,1.069691e+002
9.588720e+002,1.072243e+002
9.598362e+002,1.080153e+002
9.608005e+002,1.090177e+002
9.617647e+002,1.094271e+002
9.627289e+002,1.084922e+002
9.636932e+002,1.072289e+002
9.646574e+002,1.080890e+002
9.656216e+002,1.102374e+002
9.665859e+002,1.115558e+002
9.675501e+002,1.112488e+002
9.685143e+002,1.105189e+002
9.694786e+002,1.117329e+002
9.704428e+002,1.159884e+002
9.714070e+002,1.195424e+002
9.723713e+002,1.208183e+002
9.733355e+002,1.219720e+002
9.742997e+002,1.247684e+002
9.752640e+002,1.287810e+002
9.762282e+002,1.321134e+002
9.771924e+002,1.333523e+002
9.781567e+002,1.340044e+002
9.791209e+002,1.365777e+002
9.800851e+002,1.399936e+002
9.810494e+002,1.420435e+002
9.820136e+002,1.424733e+002
9.829778e+002,1.442635e+002
9.839421e+002,1.521789e+002
9.849063e+002,1.681279e+002
9.858705e+002,1.748134e+002
9.868348e+002,1.663497e+002
9.877990e+002,1.593031e+002
9.887632e+002,1.592333e+002
9.897275e+002,1.629587e+002
9.906917e+002,1.645090e+002
9.916559e+002,1.615566e+002
9.926202e+002,1.578561e+002
9.935844e+002,1.576712e+002
9.945486e+002,1.586365e+002
9.955129e+002,1.586159e+002
9.964771e+002,1.576707e+002
9.974413e+002,1.571434e+002
9.984056e+002,1.581762e+002
9.993698e+002,1.603394e+002
1.000334e+003,1.612879e+002
1.001298e+003,1.605117e+002
1.002263e+003,1.599921e+002
1.003227e+003,1.602294e+002
1.004191e+003,1.606027e+002
1.005155e+003,1.600180e+002
1.006119e+003,1.582347e+002
1.007084e+003,1.574443e+002
1.008048e+003,1.599663e+002
1.009012e+003,1.633591e+002
1.009976e+003,1.660317e+002
1.010941e+003,1.679659e+002
1.011905e+003,1.696706e+002
1.012869e+003,1.714921e+002
1.013833e+003,1.732673e+002
1.014798e+003,1.746601e+002
1.015762e+003,1.760136e+002
1.016726e+003,1.780853e+002
1.017690e+003,1.812560e+002
1.018654e+003,1.846058e+002
1.019619e+003,1.870449e+002
1.020583e+003,1.886733e+002
1.021547e+003,1.911894e+002
1.022511e+003,1.955148e+002
1.023476e+003,1.995720e+002
1.024440e+003,2.029794e+002
1.025404e+003,2.059355e+002
1.026368e+003,2.082567e+002
1.027333e+003,2.100989e+002
1.028297e+003,2.123042e+002
1.029261e+003,2.159004e+002
1.030225e+003,2.203952e+002
1.031190e+003,2.230297e+002
1.032154e+003,2.239887e+002
1.033118e+003,2.257115e+002
1.034082e+003,2.291358e+002
1.035047e+003,2.336089e+002
1.036011e+003,2.379619e+002
1.036975e+003,2.419467e+002
1.037939e+003,2.458547e+002
1.038903e+003,2.504177e+002
1.039868e+003,2.553895e+002
1.040832e+003,2.605667e+002
1.041796e+003,2.656010e+002
1.042760e+003,2.700098e+002
1.043725e+003,2.735374e+002
1.044689e+003,2.764268e+002
1.045653e+003,2.794437e+002
1.046617e+003,2.825699e+002
1.047582e+003,2.853589e+002
1.048546e+003,2.879744e+002
1.049510e+003,2.911729e+002
1.050474e+003,2.953898e+002
1.051438e+003,3.003299e+002
1.052403e+003,3.053572e+002
1.053367e+003,3.107063e+002
1.054331e+003,3.153147e+002
1.055295e+003,3.185290e+002
1.056260e+003,3.214962e+002
1.057224e+003,3.254207e+002
1.058188e+003,3.305867e+002
1.059152e+003,3.362831e+002
1.060117e+003,3.416711e+002
1.061081e+003,3.468622e+002
1.062045e+003,3.528411e+002
1.063009e+003,3.592879e+002
1.063974e+003,3.646523e+002
1.064938e+003,3.681777e+002
1.065902e+003,3.711154e+002
1.066866e+003,3.756631e+002
1.067830e+003,3.820305e+002
1.068795e+003,3.874090e+002
1.069759e+003,3.912058e+002
1.070723e+003,3.945019e+002
1.071687e+003,3.978938e+002
1.072652e+003,4.015320e+002
1.073616e+003,4.048467e+002
1.074580e+003,4.073199e+002
1.075544e+003,4.096783e+002
1.076509e+003,4.138773e+002
1.077473e+003,4.198786e+002
1.078437e+003,4.257419e+002
1.079401e+003,4.315021e+002
1.080365e+003,4.370493e+002
1.081330e+003,4.421854e+002
1.082294e+003,4.467703e+002
1.083258e+003,4.505015e+002
1.084222e+003,4.531375e+002
1.085187e+003,4.555514e+002
1.086151e+003,4.576357e+002
1.087115e+003,4.600660e+002
1.088079e+003,4.636758e+002
1.089043e+003,4.680128e+002
1.090008e+003,4.718273e+002
1.090972e+003,4.742999e+002
1.091936e+003,4.754157e+002
1.092900e+003,4.743308e+002
1.093865e+003,4.713858e+002
1.094829e+003,4.693731e+002
1.095793e+003,4.694655e+002
1.096757e+003,4.703716e+002
1.097722e+003,4.701339e+002
1.098686e+003,4.683607e+002
1.099650e+003,4.672577e+002
1.100614e+003,4.699653e+002
1.101578e+003,4.708114e+002
1.102543e+003,4.668362e+002
1.103507e+003,4.608229e+002
1.104471e+003,4.549455e+002
1.105435e+003,4.496140e+002
1.106400e+003,4.443843e+002
1.107364e+003,4.393877e+002
1.108328e+003,4.349084e+002
1.109292e+003,4.299853e+002
1.110257e+003,4.247251e+002
1.111221e+003,4.207763e+002
1.112185e+003,4.193003e+002
1.113149e+003,4.178061e+002
1.114114e+003,4.128701e+002
1.115078e+003,4.044028e+002
1.116042e+003,3.962920e+002
1.117006e+003,3.895424e+002
1.117970e+003,3.834684e+002
1.118935e+003,3.779936e+002
1.119899e+003,3.724254e+002
1.120863e+003,3.661296e+002
1.121827e+003,3.592059e+002
1.122792e+003,3.524961e+002
1.123756e+003,3.467393e+002
1.124720e+003,3.413196e+002
1.125684e+003,3.349458e+002
1.126649e+003,3.281323e+002
1.127613e+003,3.217619e+002
1.128577e+003,3.158258e+002
1.129541e+003,3.104178e+002
1.130505e+003,3.059204e+002
1.131470e+003,3.023700e+002
1.132434e+003,2.983796e+002
1.133398e+003,2.938943e+002
1.134362e+003,2.891133e+002
1.135327e+003,2.834818e+002
1.136291e+003,2.775065e+002
1.137255e+003,2.720468e+002
1.138219e+003,2.674625e+002
1.139184e+003,2.633789e+002
1.140148e+003,2.591441e+002
1.141112e+003,2.544271e+002
1.142076e+003,2.498423e+002
1.143041e+003,2.463937e+002
1.144005e+003,2.423071e+002
1.144969e+003,2.360245e+002
1.145933e+003,2.292322e+002
1.146897e+003,2.247977e+002
1.147862e+003,2.229336e+002
1.148826e+003,2.203181e+002
1.149790e+003,2.153835e+002
1.150754e+003,2.099263e+002
1.151719e+003,2.045676e+002
1.152683e+003,1.996192e+002
1.153647e+003,1.955133e+002
1.154611e+003,1.923664e+002
1.155576e+003,1.895507e+002
1.156540e+003,1.859454e+002
1.157504e+003,1.810477e+002
1.158468e+003,1.773995e+002
1.159432e+003,1.773393e+002
1.160397e+003,1.755814e+002
1.161361e+003,1.699956e+002
1.162325e+003,1.631856e+002
1.163289e+003,1.579626e+002
1.164254e+003,1.544326e+002
1.165218e+003,1.511032e+002
1.166182e+003,1.473803e+002
1.167146e+003,1.439128e+002
1.168111e+003,1.411687e+002
1.169075e+003,1.387910e+002
1.170039e+003,1.362896e+002
1.171003e+003,1.335309e+002
1.171968e+003,1.307911e+002
1.172932e+003,1.285486e+002
1.173896e+003,1.269550e+002
1.174860e+003,1.247801e+002
1.175824e+003,1.213392e+002
1.176789e+003,1.177195e+002
1.177753e+003,1.139119e+002
1.178717e+003,1.102464e+002
1.179681e+003,1.067581e+002
1.180646e+003,1.035398e+002
1.181610e+003,1.011151e+002
1.182574e+003,1.000583e+002
1.183538e+003,9.925424e+001
1.184503e+003,9.739684e+001
1.185467e+003,9.480939e+001
1.186431e+003,9.166724e+001
1.187395e+003,8.792178e+001
1.188359e+003,8.431374e+001
1.189324e+003,8.207632e+001
1.190288e+003,8.124556e+001
1.191252e+003,7.929794e+001
1.192216e+003,7.471667e+001
1.193181e+003,7.126784e+001
1.194145e+003,6.959099e+001
1.195109e+003,6.835332e+001
1.196073e+003,6.732130e+001
1.197038e+003,6.631563e+001
1.198002e+003,6.476968e+001
1.198966e+003,6.230814e+001
1.199930e+003,5.963609e+001
1.200895e+003,5.788724e+001
1.201859e+003,5.687706e+001
1.202823e+003,5.595973e+001
1.203787e+003,5.516098e+001
1.204751e+003,5.355939e+001
1.205716e+003,4.988373e+001
1.206680e+003,4.511270e+001
1.207644e+003,4.218704e+001
1.208608e+003,4.162329e+001
1.209573e+003,4.071696e+001
1.210537e+003,3.883240e+001
1.211501e+003,3.695763e+001
1.212465e+003,3.516943e+001
1.213430e+003,3.379845e+001
1.214394e+003,3.322040e+001
1.215358e+003,3.322171e+001
1.216322e+003,3.293661e+001
1.217286e+003,3.163867e+001
1.218251e+003,2.960278e+001
1.219215e+003,2.768033e+001
1.220179e+003,2.602541e+001
1.221143e+003,2.470158e+001
1.222108e+003,2.369266e+001
1.223072e+003,2.301091e+001
1.224036e+003,2.238722e+001
1.225000e+003,2.168826e+001
1.225965e+003,2.163757e+001
1.226929e+003,2.326131e+001
1.227893e+003,2.373985e+001
1.228857e+003,2.096758e+001
1.229822e+003,1.761206e+001
1.230786e+003,1.608728e+001
1.231750e+003,1.637001e+001
1.232714e+003,1.694995e+001
1.233678e+003,1.664345e+001
1.234643e+003,1.553271e+001
1.235607e+003,1.412221e+001
1.236571e+003,1.238385e+001
1.237535e+003,1.146069e+001
1.238500e+003,1.116507e+001
1.239464e+003,1.136447e+001
1.240428e+003,1.247343e+001
1.241392e+003,1.362474e+001
1.242357e+003,1.358319e+001
1.243321e+003,1.223779e+001
1.244285e+003,1.057466e+001
1.245249e+003,8.700668e+000
1.246214e+003,7.507263e+000
1.247178e+003,8.718002e+000
1.248142e+003,1.148125e+001
1.249106e+003,1.288051e+001
1.250070e+003,1.169345e+001
1.251035e+003,9.711655e+000
1.251999e+003,9.662277e+000
1.252963e+003,1.166162e+001
1.253927e+003,1.219188e+001
1.254892e+003,9.912247e+000
1.255856e+003,8.197998e+000
1.256820e+003,7.749039e+000
1.257784e+003,7.914536e+000
1.258749e+003,8.411987e+000
1.259713e+003,9.049835e+000
1.260677e+003,9.647064e+000
1.261641e+003,1.007690e+001
1.262605e+003,1.025810e+001
1.263570e+003,1.007295e+001
1.264534e+003,9.560730e+000
1.265498e+003,9.024200e+000
1.266462e+003,8.445557e+000
1.267427e+003,8.031036e+000
1.268391e+003,7.527222e+000
1.269355e+003,7.039871e+000
1.270319e+003,7.361435e+000
1.271284e+003,8.753952e+000
1.272248e+003,9.120010e+000
1.273212e+003,6.847412e+000
1.274176e+003,5.065216e+000
1.275141e+003,5.553558e+000
1.276105e+003,6.841660e+000
1.277069e+003,7.623688e+000
1.278033e+003,7.686874e+000
1.278997e+003,7.246002e+000
1.279962e+003,6.469940e+000
1.280926e+003,5.689636e+000
1.281890e+003,5.506165e+000
1.282854e+003,5.233505e+000
1.283819e+003,4.848175e+000
1.284783e+003,5.135742e+000
1.285747e+003,5.041550e+000
1.286711e+003,3.661575e+000
1.287676e+003,2.106079e+000
1.288640e+003,2.178360e+000
1.289604e+003,4.071533e+000
1.290568e+003,5.782715e+000
1.291532e+003,5.591354e+000
1.292497e+003,4.291367e+000
1.293461e+003,3.676895e+000
1.294425e+003,3.786087e+000
1.295389e+003,4.221848e+000
1.296354e+003,4.853607e+000
1.297318e+003,5.433701e+000
1.298282e+003,5.716721e+000
1.299246e+003,5.694199e+000
1.300211e+003,5.531784e+000
1.301175e+003,5.256760e+000
1.302139e+003,5.635101e+000
1.303103e+003,7.486359e+000
1.304068e+003,8.777527e+000
1.305032e+003,7.746521e+000
1.305996e+003,5.553177e+000
1.306960e+003,4.591141e+000
1.307924e+003,5.820282e+000
1.308889e+003,7.867584e+000
1.309853e+003,8.621567e+000
1.310817e+003,7.718475e+000
1.311781e+003,7.004486e+000
1.312746e+003,8.060684e+000
1.313710e+003,8.496048e+000
1.314674e+003,7.310287e+000
1.315638e+003,5.787033e+000
1.316603e+003,4.283646e+000
1.317567e+003,2.873001e+000
1.318531e+003,2.403351e+000
1.319495e+003,3.654083e+000
1.320459e+003,5.529892e+000
1.321424e+003,6.692398e+000
1.322388e+003,7.050873e+000
1.323352e+003,7.039749e+000
1.324316e+003,6.700211e+000
1.325281e+003,5.781174e+000
1.326245e+003,3.943420e+000
1.327209e+003,2.157852e+000
1.328173e+003,1.876236e+000
1.329138e+003,3.084091e+000
1.330102e+003,4.455841e+000
1.331066e+003,6.947861e+000
1.332030e+003,8.144012e+000
1.332995e+003,5.944626e+000
1.333959e+003,3.412003e+000
1.334923e+003,2.788971e+000
1.335887e+003,3.477539e+000
1.336851e+003,3.869522e+000
1.337816e+003,3.428680e+000
1.338780e+003,3.108490e+000
1.339744e+003,3.987732e+000
1.340708e+003,5.680771e+000
1.341673e+003,6.052124e+000
1.342637e+003,4.105209e+000
1.343601e+003,3.318298e+000
1.344565e+003,5.638351e+000
1.345530e+003,8.182678e+000
1.346494e+003,8.383087e+000
1.347458e+003,6.978424e+000
1.348422e+003,6.293762e+000
1.349386e+003,6.878174e+000
1.350351e+003,7.411835e+000
1.351315e+003,7.105911e+000
1.352279e+003,6.495514e+000
1.353243e+003,6.139786e+000
1.354208e+003,6.081207e+000
1.355172e+003,6.294449e+000
1.356136e+003,6.618118e+000
1.357100e+003,6.806763e+000
1.358065e+003,6.678467e+000
1.359029e+003,6.403229e+000
1.359993e+003,6.676910e+000
1.360957e+003,8.098450e+000
1.361922e+003,8.881821e+000
1.362886e+003,8.059143e+000
1.363850e+003,6.981018e+000
1.364814e+003,5.942383e+000
1.365778e+003,4.976181e+000
1.366743e+003,4.144775e+000
1.367707e+003,3.537094e+000
1.368671e+003,3.316452e+000
1.369635e+003,3.741592e+000
1.370600e+003,4.802261e+000
1.371564e+003,5.614716e+000
1.372528e+003,5.834442e+000
1.373492e+003,5.785751e+000
1.374457e+003,4.603134e+000
1.375421e+003,3.901169e+000
1.376385e+003,5.381332e+000
1.377349e+003,7.537704e+000
1.378313e+003,7.763092e+000
1.379278e+003,5.842010e+000
1.380242e+003,4.211914e+000
1.381206e+003,4.540833e+000
1.382170e+003,5.785614e+000
1.383135e+003,6.132111e+000
1.384099e+003,5.953964e+000
1.385063e+003,6.366486e+000
1.386027e+003,7.274460e+000
1.386992e+003,7.643845e+000
1.387956e+003,6.698471e+000
1.388920e+003,5.522293e+000
1.389884e+003,6.256500e+000
1.390849e+003,9.034729e+000
1.391813e+003,1.044305e+001
1.392777e+003,8.346283e+000
1.393741e+003,5.954132e+000
1.394705e+003,5.611618e+000
1.395670e+003,6.293320e+000
1.396634e+003,6.852661e+000
1.397598e+003,6.866364e+000
1.398562e+003,6.309875e+000
1.399527e+003,5.410614e+000
1.400491e+003,4.783981e+000
1.401455e+003,5.230972e+000
1.402419e+003,6.767532e+000
1.403384e+003,7.793442e+000
1.404348e+003,7.459091e+000
1.405312e+003,6.908813e+000
1.406276e+003,7.188217e+000
1.407240e+003,7.861649e+000
1.408205e+003,7.880112e+000
1.409169e+003,7.315994e+000
1.410133e+003,6.985580e+000
1.411097e+003,7.065002e+000
1.412062e+003,6.674530e+000
1.413026e+003,5.162460e+000
1.413990e+003,3.517334e+000
1.414954e+003,3.672546e+000
1.415919e+003,5.535675e+000
1.416883e+003,7.087296e+000
1.417847e+003,8.021210e+000
1.418811e+003,8.443130e+000
1.419776e+003,8.303619e+000
1.420740e+003,7.949783e+000
1.421704e+003,7.898941e+000
1.422668e+003,8.236328e+000
1.423632e+003,8.628357e+000
1.424597e+003,8.923859e+000
1.425561e+003,9.010956e+000
1.426525e+003,8.415955e+000
1.427489e+003,7.799362e+000
1.428454e+003,8.331131e+000
1.429418e+003,9.941589e+000
1.430382e+003,1.114087e+001
1.431346e+003,1.092943e+001
1.432311e+003,9.721130e+000
1.433275e+003,8.210358e+000
1.434239e+003,6.896576e+000
1.435203e+003,7.284073e+000
1.436167e+003,9.813660e+000
1.437132e+003,1.196251e+001
1.438096e+003,1.286197e+001
1.439060e+003,1.289641e+001
1.440024e+003,1.227750e+001
1.440989e+003,1.152415e+001
1.441953e+003,1.099106e+001
1.442917e+003,1.058916e+001
1.443881e+003,1.002982e+001
1.444846e+003,9.255219e+000
1.445810e+003,8.560730e+000
1.446774e+003,8.186890e+000
1.447738e+003,7.596512e+000
1.448703e+003,7.848404e+000
1.449667e+003,1.040909e+001
1.450631e+003,1.201419e+001
1.451595e+003,1.122057e+001
1.452559e+003,9.941254e+000
1.453524e+003,9.864059e+000
1.454488e+003,1.078932e+001
1.455452e+003,1.150534e+001
1.456416e+003,1.142802e+001
1.457381e+003,1.116125e+001
1.458345e+003,1.155489e+001
1.459309e+003,1.236665e+001
1.460273e+003,1.255058e+001
1.461238e+003,1.248251e+001
1.462202e+003,1.234337e+001
1.463166e+003,1.175467e+001
1.464130e+003,1.138847e+001
1.465094e+003,1.154536e+001
1.466059e+003,1.163126e+001
1.467023e+003,1.089075e+001
1.467987e+003,9.556091e+000
1.468951e+003,9.034393e+000
1.469916e+003,1.037149e+001
1.470880e+003,1.254314e+001
1.471844e+003,1.355980e+001
1.472808e+003,1.337299e+001
1.473773e+003,1.336693e+001
1.474737e+003,1.396088e+001
1.475701e+003,1.438339e+001
1.476665e+003,1.419438e+001
1.477630e+003,1.398061e+001
1.478594e+003,1.430606e+001
1.479558e+003,1.478697e+001
1.480522e+003,1.455846e+001
1.481486e+003,1.349214e+001
1.482451e+003,1.287524e+001
1.483415e+003,1.359053e+001
1.484379e+003,1.460211e+001
1.485343e+003,1.521986e+001
1.486308e+003,1.556543e+001
1.487272e+003,1.563191e+001
1.488236e+003,1.543266e+001
1.489200e+003,1.535399e+001
1.490165e+003,1.558382e+001
1.491129e+003,1.605397e+001
1.492093e+003,1.703465e+001
1.493057e+003,1.876895e+001
1.494021e+003,1.984198e+001
1.494986e+003,1.952353e+001
1.495950e+003,1.994360e+001
1.496914e+003,2.232224e+001
1.497878e+003,2.452859e+001
1.498843e+003,2.511617e+001
1.499807e+003,2.466695e+001
1.500771e+003,2.409161e+001
1.501735e+003,2.378923e+001
1.502700e+003,2.401405e+001
1.503664e+003,2.499324e+001
1.504628e+003,2.634622e+001
1.505592e+003,2.722878e+001
1.506557e+003,2.792654e+001
1.507521e+003,2.826674e+001
1.508485e+003,2.714674e+001
1.509449e+003,2.668103e+001
1.510413e+003,2.767792e+001
1.511378e+003,2.884428e+001
1.512342e+003,2.968216e+001
1.513306e+003,2.999928e+001
1.514270e+003,2.923169e+001
1.515235e+003,2.735976e+001
1.516199e+003,2.559694e+001
1.517163e+003,2.522102e+001
1.518127e+003,2.589375e+001
1.519092e+003,2.621211e+001
1.520056e+003,2.590009e+001
1.521020e+003,2.566370e+001
1.521984e+003,2.565294e+001
1.522948e+003,2.545309e+001
1.523913e+003,2.528241e+001
1.524877e+003,2.505566e+001
1.525841e+003,2.437971e+001
1.526805e+003,2.336684e+001
1.527770e+003,2.231850e+001
1.528734e+003,2.121608e+001
1.529698e+003,2.020412e+001
1.530662e+003,1.977094e+001
1.531627e+003,1.958270e+001
1.532591e+003,1.812033e+001
1.533555e+003,1.517632e+001
1.534519e+003,1.357172e+001
1.535484e+003,1.412817e+001
1.536448e+003,1.497951e+001
1.537412e+003,1.555367e+001
1.538376e+003,1.576102e+001
1.539340e+003,1.561946e+001
1.540305e+003,1.529739e+001
1.541269e+003,1.490894e+001
1.542233e+003,1.430550e+001
1.543197e+003,1.318718e+001
1.544162e+003,1.124396e+001
1.545126e+003,9.082047e+000
1.546090e+003,8.143875e+000
1.547054e+003,8.801865e+000
1.548019e+003,1.030954e+001
1.548983e+003,1.221996e+001
1.549947e+003,1.344699e+001
1.550911e+003,1.345079e+001
1.551875e+003,1.289407e+001
1.552840e+003,1.280260e+001
1.553804e+003,1.323701e+001
1.554768e+003,1.316841e+001
1.555732e+003,1.201634e+001
1.556697e+003,1.093381e+001
1.557661e+003,1.071669e+001
1.558625e+003,1.116174e+001
1.559589e+003,1.265553e+001
1.560554e+003,1.448792e+001
1.561518e+003,1.432576e+001
1.562482e+003,1.157922e+001
1.563446e+003,9.527542e+000
1.564411e+003,1.062199e+001
1.565375e+003,1.280949e+001
1.566339e+003,1.366823e+001
1.567303e+003,1.340334e+001
1.568267e+003,1.273192e+001
1.569232e+003,1.165146e+001
1.570196e+003,1.121948e+001
1.571160e+003,1.241386e+001
1.572124e+003,1.354773e+001
1.573089e+003,1.247728e+001
1.574053e+003,1.083055e+001
1.575017e+003,1.114658e+001
1.575981e+003,1.336551e+001
1.576946e+003,1.534698e+001
1.577910e+003,1.621820e+001
1.578874e+003,1.567398e+001
1.579838e+003,1.286757e+001
1.580802e+003,9.183701e+000
1.581767e+003,8.033051e+000
1.582731e+003,9.400620e+000
1.583695e+003,1.114352e+001
1.584659e+003,1.313034e+001
1.585624e+003,1.433955e+001
1.586588e+003,1.414290e+001
1.587552e+003,1.343823e+001
1.588516e+003,1.232719e+001
1.589481e+003,1.101497e+001
1.590445e+003,1.057326e+001
1.591409e+003,1.132224e+001
1.592373e+003,1.246664e+001
1.593338e+003,1.391216e+001
1.594302e+003,1.531320e+001
1.595266e+003,1.520676e+001
1.596230e+003,1.363295e+001
1.597194e+003,1.281252e+001
1.598159e+003,1.331059e+001
1.599123e+003,1.359363e+001
1.600087e+003,1.253078e+001
1.601051e+003,1.139412e+001
1.602016e+003,1.137480e+001
1.602980e+003,1.187747e+001
1.603944e+003,1.171153e+001
1.604908e+003,1.089073e+001
1.605873e+003,1.070988e+001
1.606837e+003,1.221944e+001
1.607801e+003,1.445462e+001
1.608765e+003,1.549927e+001
1.609729e+003,1.523982e+001
1.610694e+003,1.535605e+001
1.611658e+003,1.643619e+001
1.612622e+003,1.694617e+001
1.613586e+003,1.652330e+001
1.614551e+003,1.563647e+001
1.615515e+003,1.343529e+001
1.616479e+003,1.096991e+001
1.617443e+003,1.017741e+001
1.618408e+003,1.100110e+001
1.619372e+003,1.180148e+001
1.620336e+003,1.198508e+001
1.621300e+003,1.195398e+001
1.622265e+003,1.165332e+001
1.623229e+003,1.135023e+001
1.624193e+003,1.243500e+001
1.625157e+003,1.494473e+001
1.626121e+003,1.608345e+001
1.627086e+003,1.470828e+001
1.628050e+003,1.352119e+001
1.629014e+003,1.439981e+001
1.629978e+003,1.564966e+001
1.630943e+003,1.585779e+001
1.631907e+003,1.533279e+001
1.632871e+003,1.488875e+001
1.633835e+003,1.486371e+001
1.634800e+003,1.516331e+001
1.635764e+003,1.587463e+001
1.636728e+003,1.670341e+001
1.637692e+003,1.653120e+001
1.638656e+003,1.552727e+001
1.639621e+003,1.637573e+001
1.640585e+003,1.973972e+001
1.641549e+003,2.149136e+001
1.642513e+003,1.983546e+001
1.643478e+003,1.774335e+001
1.644442e+003,1.701462e+001
1.645406e+003,1.712247e+001
1.646370e+003,1.793736e+001
1.647335e+003,1.911234e+001
1.648299e+003,1.930498e+001
1.649263e+003,1.783524e+001
1.650227e+003,1.647948e+001
1.651192e+003,1.709781e+001
1.652156e+003,1.864778e+001
1.653120e+003,1.919556e+001
1.654084e+003,1.885065e+001
1.655048e+003,1.838614e+001
1.656013e+003,1.781703e+001
1.656977e+003,1.786099e+001
1.657941e+003,1.910446e+001
1.658905e+003,2.036235e+001
1.659870e+003,2.049918e+001
1.660834e+003,2.014578e+001
1.661798e+003,1.984676e+001
1.662762e+003,1.944984e+001
1.663727e+003,1.979089e+001
1.664691e+003,2.194794e+001
1.665655e+003,2.398750e+001
1.666619e+003,2.438863e+001
1.667583e+003,2.367070e+001
1.668548e+003,2.215677e+001
1.669512e+003,1.992729e+001
1.670476e+003,1.855966e+001
1.671440e+003,1.892802e+001
1.672405e+003,1.968790e+001
1.673369e+003,1.946341e+001
1.674333e+003,1.884528e+001
1.675297e+003,1.920935e+001
1.676262e+003,2.035318e+001
1.677226e+003,2.129654e+001
1.678190e+003,2.197838e+001
1.679154e+003,2.240813e+001
1.680119e+003,2.306769e+001
1.681083e+003,2.289618e+001
1.682047e+003,1.992047e+001
1.683011e+003,1.618582e+001
1.683975e+003,1.604558e+001
1.684940e+003,1.935774e+001
1.685904e+003,2.141293e+001
1.686868e+003,2.009361e+001
1.687832e+003,1.862244e+001
1.688797e+003,2.021822e+001
1.689761e+003,2.330952e+001
1.690725e+003,2.408463e+001
1.691689e+003,2.228473e+001
1.692654e+003,2.194577e+001
1.693618e+003,2.478821e+001
1.694582e+003,2.720906e+001
1.695546e+003,2.789287e+001
1.696510e+003,2.741541e+001
1.697475e+003,2.576863e+001
1.698439e+003,2.407065e+001
1.699403e+003,2.386095e+001
1.700367e+003,2.514450e+001
1.701332e+003,2.689996e+001
1.702296e+003,2.854057e+001
1.703260e+003,2.971802e+001
1.704224e+003,2.991782e+001
1.705189e+003,2.929938e+001
1.706153e+003,2.919925e+001
1.707117e+003,2.976137e+001
1.708081e+003,2.956122e+001
1.709046e+003,2.894879e+001
1.710010e+003,2.913950e+001
1.710974e+003,2.964656e+001
1.711938e+003,3.044139e+001
1.712902e+003,3.182004e+001
1.713867e+003,3.315300e+001
1.714831e+003,3.415205e+001
1.715795e+003,3.492740e+001
1.716759e+003,3.522267e+001
1.717724e+003,3.483784e+001
1.718688e+003,3.446513e+001
1.719652e+003,3.496654e+001
1.720616e+003,3.596663e+001
1.721581e+003,3.659424e+001
1.722545e+003,3.707852e+001
1.723509e+003,3.654182e+001
1.724473e+003,3.427701e+001
1.725438e+003,3.250258e+001
1.726402e+003,3.130403e+001
1.727366e+003,3.078925e+001
1.728330e+003,3.196741e+001
1.729294e+003,3.361156e+001
1.730259e+003,3.363866e+001
1.731223e+003,3.242830e+001
1.732187e+003,3.257617e+001
1.733151e+003,3.510078e+001
1.734116e+003,3.751363e+001
1.735080e+003,3.741794e+001
1.736044e+003,3.595869e+001
1.737008e+003,3.498795e+001
1.737973e+003,3.435469e+001
1.738937e+003,3.475954e+001
1.739901e+003,3.665753e+001
1.740865e+003,3.765355e+001
1.741829e+003,3.667610e+001
1.742794e+003,3.490334e+001
1.743758e+003,3.258383e+001
1.744722e+003,3.057162e+001
1.745686e+003,3.022899e+001
1.746651e+003,3.142819e+001
1.747615e+003,3.310582e+001
1.748579e+003,3.509042e+001
1.749543e+003,3.682162e+001
1.750508e+003,3.875195e+001
1.751472e+003,3.988281e+001
1.752436e+003,3.797757e+001
1.753400e+003,3.437491e+001
1.754365e+003,3.269560e+001
1.755329e+003,3.332286e+001
1.756293e+003,3.413611e+001
1.757257e+003,3.425775e+001
1.758221e+003,3.391254e+001
1.759186e+003,3.318248e+001
1.760150e+003,3.275043e+001
1.761114e+003,3.417050e+001
1.762078e+003,3.737570e+001
1.763043e+003,3.802948e+001
1.764007e+003,3.382288e+001
1.764971e+003,3.052693e+001
1.765935e+003,3.038068e+001
1.766900e+003,3.083511e+001
1.767864e+003,2.949287e+001
1.768828e+003,2.825314e+001
1.769792e+003,3.036732e+001
1.770756e+003,3.467282e+001
1.771721e+003,3.710632e+001
1.772685e+003,3.620076e+001
1.773649e+003,3.418723e+001
1.774613e+003,3.325052e+001
1.775578e+003,3.296497e+001
1.776542e+003,3.168205e+001
1.777506e+003,2.929713e+001
1.778470e+003,2.827734e+001
1.779435e+003,2.905739e+001
1.780399e+003,2.935822e+001
1.781363e+003,2.881856e+001
1.782327e+003,2.866704e+001
1.783292e+003,2.943614e+001
1.784256e+003,2.981520e+001
1.785220e+003,2.865749e+001
1.786184e+003,2.703410e+001
1.787148e+003,2.669217e+001
1.788113e+003,2.765607e+001
1.789077e+003,2.854216e+001
1.790041e+003,2.863588e+001
1.791005e+003,2.817625e+001
1.791970e+003,2.740489e+001
1.792934e+003,2.672159e+001
1.793898e+003,2.663614e+001
1.794862e+003,2.702058e+001
1.795827e+003,2.741280e+001
1.796791e+003,2.764934e+001
1.797755e+003,2.763425e+001
1.798719e+003,2.731268e+001
1.799683e+003,2.717180e+001
1.800648e+003,2.769659e+001
1.801612e+003,2.847893e+001
1.802576e+003,2.879199e+001
1.803540e+003,2.858043e+001
1.804505e+003,2.774290e+001
1.805469e+003,2.616682e+001
1.806433e+003,2.560219e+001
1.807397e+003,2.670830e+001
1.808362e+003,2.789421e+001
1.809326e+003,2.857294e+001
1.810290e+003,2.849438e+001
1.811254e+003,2.690686e+001
1.812219e+003,2.447919e+001
1.813183e+003,2.285724e+001
1.814147e+003,2.244255e+001
1.815111e+003,2.252281e+001
1.816075e+003,2.289041e+001
1.817040e+003,2.371762e+001
1.818004e+003,2.469035e+001
1.818968e+003,2.576990e+001
1.819932e+003,2.623097e+001
1.820897e+003,2.488466e+001
1.821861e+003,2.450327e+001
1.822825e+003,2.681856e+001
1.823789e+003,2.832846e+001
1.824754e+003,2.793915e+001
1.825718e+003,2.723628e+001
1.826682e+003,2.663054e+001
1.827646e+003,2.589447e+001
1.828610e+003,2.468135e+001
1.829575e+003,2.330898e+001
1.830539e+003,2.330663e+001
1.831503e+003,2.553123e+001
1.832467e+003,2.774481e+001
1.833432e+003,2.814517e+001
1.834396e+003,2.738989e+001
1.835360e+003,2.628793e+001
1.836324e+003,2.540837e+001
1.837289e+003,2.533192e+001
1.838253e+003,2.569278e+001
1.839217e+003,2.630882e+001
1.840181e+003,2.735339e+001
1.841146e+003,2.778206e+001
1.842110e+003,2.663922e+001
1.843074e+003,2.526053e+001
1.844038e+003,2.603426e+001
1.845002e+003,2.878415e+001
1.845967e+003,3.014833e+001
1.846931e+003,2.905338e+001
1.847895e+003,2.884668e+001
1.848859e+003,2.985249e+001
1.849824e+003,3.005600e+001
1.850788e+003,2.876096e+001
1.851752e+003,2.735889e+001
1.852716e+003,2.695280e+001
1.853681e+003,2.757161e+001
1.854645e+003,2.891089e+001
1.855609e+003,3.046901e+001
1.856573e+003,3.156238e+001
1.857537e+003,3.174959e+001
1.858502e+003,3.116423e+001
1.859466e+003,3.028203e+001
1.860430e+003,2.967563e+001
1.861394e+003,2.958669e+001
1.862359e+003,2.968878e+001
1.863323e+003,2.973430e+001
1.864287e+003,2.964613e+001
1.865251e+003,2.959979e+001
1.866216e+003,3.006380e+001
1.867180e+003,3.062463e+001
1.868144e+003,3.045209e+001
1.869108e+003,2.989885e+001
1.870073e+003,2.996812e+001
1.871037e+003,3.065079e+001
1.872001e+003,3.116983e+001
1.872965e+003,3.170013e+001
1.873929e+003,3.187743e+001
1.874894e+003,3.073372e+001
1.875858e+003,2.968408e+001
1.876822e+003,2.982466e+001
1.877786e+003,3.010455e+001
1.878751e+003,2.944637e+001
1.879715e+003,2.863062e+001
1.880679e+003,2.879651e+001
1.881643e+003,2.964348e+001
1.882608e+003,3.003879e+001
1.883572e+003,2.970978e+001
1.884536e+003,2.961560e+001
1.885500e+003,3.047517e+001
1.886464e+003,3.124696e+001
1.887429e+003,3.030374e+001
1.888393e+003,2.832291e+001
1.889357e+003,2.736307e+001
1.890321e+003,2.729372e+001
1.891286e+003,2.799611e+001
1.892250e+003,2.966191e+001
1.893214e+003,3.025604e+001
1.894178e+003,2.859627e+001
1.895143e+003,2.744730e+001
1.896107e+003,2.971098e+001
1.897071e+003,3.308018e+001
1.898035e+003,3.249298e+001
1.899000e+003,2.820403e+001
1.899964e+003,2.614063e+001
1.900928e+003,2.882870e+001
1.901892e+003,3.150890e+001
1.902856e+003,3.244429e+001
1.903821e+003,3.256375e+001
1.904785e+003,3.149663e+001
1.905749e+003,3.011371e+001
1.906713e+003,3.006288e+001
1.907678e+003,3.088014e+001
1.908642e+003,3.081839e+001
1.909606e+003,2.973262e+001
1.910570e+003,2.906058e+001
1.911535e+003,2.954933e+001
1.912499e+003,3.048679e+001
1.913463e+003,3.096454e+001
1.914427e+003,3.067793e+001
1.915391e+003,2.949442e+001
1.916356e+003,2.801817e+001
1.917320e+003,2.826849e+001
1.918284e+003,3.054185e+001
1.919248e+003,3.156911e+001
1.920213e+003,2.969586e+001
1.921177e+003,2.810201e+001
1.922141e+003,2.893701e+001
1.923105e+003,3.050172e+001
1.924070e+003,3.096727e+001
1.925034e+003,3.068781e+001
1.925998e+003,3.046640e+001
1.926962e+003,3.026161e+001
1.927927e+003,3.108727e+001
1.928891e+003,3.502873e+001
1.929855e+003,3.652681e+001
1.930819e+003,3.177507e+001
1.931783e+003,2.769905e+001
1.932748e+003,2.939323e+001
1.933712e+003,3.198262e+001
1.934676e+003,2.979185e+001
1.935640e+003,2.530046e+001
1.936605e+003,2.350943e+001
1.937569e+003,2.476527e+001
1.938533e+003,2.652745e+001
1.939497e+003,2.795750e+001
1.940462e+003,2.940517e+001
1.941426e+003,3.083984e+001
1.942390e+003,3.152826e+001
1.943354e+003,2.991394e+001
1.944318e+003,2.661963e+001
1.945283e+003,2.508098e+001
1.946247e+003,2.569676e+001
1.947211e+003,2.569211e+001
1.948175e+003,2.438187e+001
1.949140e+003,2.398804e+001
1.950104e+003,2.544341e+001
1.951068e+003,2.714632e+001
1.952032e+003,2.779561e+001
1.952997e+003,2.769411e+001
1.953961e+003,2.722072e+001
1.954925e+003,2.626570e+001
1.955889e+003,2.568652e+001
1.956854e+003,2.601935e+001
1.957818e+003,2.594493e+001
1.958782e+003,2.528050e+001
1.959746e+003,2.479274e+001
1.960710e+003,2.370442e+001
1.961675e+003,2.274210e+001
1.962639e+003,2.323074e+001
1.963603e+003,2.445140e+001
1.964567e+003,2.515543e+001
1.965532e+003,2.519725e+001
1.966496e+003,2.485641e+001
1.967460e+003,2.417331e+001
1.968424e+003,2.368225e+001
1.969389e+003,2.369984e+001
1.970353e+003,2.403226e+001
1.971317e+003,2.525444e+001
1.972281e+003,2.624298e+001
1.973245e+003,2.494476e+001
1.974210e+003,2.255476e+001
1.975174e+003,2.175722e+001
1.976138e+003,2.260164e+001
1.977102e+003,2.319464e+001
1.978067e+003,2.268135e+001
1.979031e+003,2.202550e+001
1.979995e+003,2.222771e+001
1.980959e+003,2.275502e+001
1.981924e+003,2.241298e+001
1.982888e+003,2.170256e+001
1.983852e+003,2.337920e+001
1.984816e+003,2.746692e+001
1.985781e+003,2.884691e+001
1.986745e+003,2.668951e+001
1.987709e+003,2.570828e+001
1.988673e+003,2.768756e+001
1.989637e+003,2.925919e+001
1.990602e+003,2.761174e+001
1.991566e+003,2.465997e+001
1.992530e+003,2.366225e+001
1.993494e+003,2.466129e+001
1.994459e+003,2.549849e+001
1.995423e+003,2.568858e+001
1.996387e+003,2.616983e+001
1.997351e+003,2.714038e+001
1.998316e+003,2.770486e+001
1.999280e+003,2.804680e+001
2.000244e+003,2.840004e+001
2.001208e+003,2.922231e+001
2.002172e+003,2.962152e+001
2.003137e+003,2.752448e+001
2.004101e+003,2.448276e+001
2.005065e+003,2.434895e+001
2.006029e+003,2.727818e+001
2.006994e+003,2.931729e+001
2.007958e+003,2.857367e+001
2.008922e+003,2.678940e+001
2.009886e+003,2.508006e+001
2.010851e+003,2.403860e+001
2.011815e+003,2.408578e+001
2.012779e+003,2.458484e+001
2.013743e+003,2.453052e+001
2.014708e+003,2.422128e+001
2.015672e+003,2.503598e+001
2.016636e+003,2.700049e+001
2.017600e+003,2.866814e+001
2.018564e+003,2.919994e+001
2.019529e+003,2.833586e+001
2.020493e+003,2.589977e+001
2.021457e+003,2.334294e+001
2.022421e+003,2.307573e+001
2.023386e+003,2.458607e+001
2.024350e+003,2.642665e+001
2.025314e+003,2.861609e+001
2.026278e+003,2.941173e+001
2.027243e+003,2.855566e+001
2.028207e+003,2.847089e+001
2.029171e+003,3.020119e+001
2.030135e+003,3.088568e+001
2.031099e+003,2.791896e+001
2.032064e+003,2.423151e+001
2.033028e+003,2.434924e+001
2.033992e+003,2.707677e+001
2.034956e+003,2.792229e+001
2.035921e+003,2.737732e+001
2.036885e+003,2.668324e+001
2.037849e+003,2.527328e+001
2.038813e+003,2.495004e+001
2.039778e+003,2.497722e+001
2.040742e+003,2.494919e+001
2.041706e+003,2.585796e+001
2.042670e+003,2.697171e+001
2.043635e+003,2.767960e+001
2.044599e+003,2.797925e+001
2.045563e+003,2.780098e+001
2.046527e+003,2.735289e+001
2.047491e+003,2.741765e+001
2.048456e+003,2.845734e+001
2.049420e+003,2.926874e+001
2.050384e+003,2.901485e+001
2.051348e+003,2.789534e+001
2.052313e+003,2.540169e+001
2.053277e+003,2.344635e+001
2.054241e+003,2.370021e+001
2.055205e+003,2.550491e+001
2.056170e+003,2.870293e+001
2.057134e+003,3.144592e+001
2.058098e+003,3.003864e+001
2.059062e+003,2.473776e+001
2.060027e+003,2.087233e+001
2.060991e+003,2.115225e+001
2.061955e+003,2.297145e+001
2.062919e+003,2.417532e+001
2.063884e+003,2.517464e+001
2.064848e+003,2.767726e+001
2.065812e+003,3.041124e+001
2.066776e+003,2.969798e+001
2.067740e+003,2.639381e+001
2.068705e+003,2.401552e+001
2.069669e+003,2.351938e+001
2.070633e+003,2.522421e+001
2.071597e+003,2.881714e+001
2.072562e+003,3.063461e+001
2.073526e+003,2.768089e+001
2.074490e+003,2.316219e+001
2.075454e+003,2.146805e+001
2.076418e+003,2.182625e+001
2.077383e+003,2.266451e+001
2.078347e+003,2.352007e+001
2.079311e+003,2.348068e+001
2.080275e+003,2.327368e+001
2.081240e+003,2.246326e+001
2.082204e+003,2.027893e+001
2.083168e+003,1.940845e+001
2.084132e+003,2.162421e+001
2.085096e+003,2.407054e+001
2.086061e+003,2.374677e+001
2.087025e+003,2.179471e+001
2.087989e+003,2.062657e+001
2.088953e+003,2.022127e+001
2.089918e+003,2.134326e+001
2.090882e+003,2.501993e+001
2.091846e+003,2.519270e+001
2.092810e+003,1.962834e+001
2.093775e+003,1.569028e+001
2.094739e+003,1.614311e+001
2.095703e+003,1.758719e+001
2.096667e+003,1.803989e+001
2.097632e+003,1.794745e+001
2.098596e+003,1.803297e+001
2.099560e+003,1.848288e+001
2.100524e+003,1.887865e+001
2.101489e+003,1.871590e+001
2.102453e+003,1.835461e+001
2.103417e+003,1.766133e+001
2.104381e+003,1.759802e+001
2.105345e+003,1.879341e+001
2.106310e+003,2.005078e+001
2.107274e+003,2.075732e+001
2.108238e+003,2.173991e+001
2.109202e+003,2.463518e+001
2.110167e+003,2.710933e+001
2.111131e+003,2.481064e+001
2.112095e+003,1.895464e+001
2.113059e+003,1.594853e+001
2.114023e+003,1.763121e+001
2.114988e+003,1.968230e+001
2.115952e+003,2.034320e+001
2.116916e+003,2.036253e+001
2.117880e+003,2.000244e+001
2.118845e+003,1.949828e+001
2.119809e+003,2.003903e+001
2.120773e+003,2.068733e+001
2.121737e+003,1.930432e+001
2.122702e+003,1.701859e+001
2.123666e+003,1.597354e+001
2.124630e+003,1.618700e+001
2.125594e+003,1.698424e+001
2.126559e+003,1.836113e+001
2.127523e+003,1.914774e+001
2.128487e+003,1.887181e+001
2.129451e+003,1.839888e+001
2.130416e+003,1.770187e+001
2.131380e+003,1.688420e+001
2.132344e+003,1.545288e+001
2.133308e+003,1.459085e+001
2.134272e+003,1.631996e+001
2.135237e+003,1.898277e+001
2.136201e+003,1.961412e+001
2.137165e+003,1.830901e+001
2.138129e+003,1.720041e+001
2.139094e+003,1.713333e+001
2.140058e+003,1.708070e+001
2.141022e+003,1.587766e+001
2.141986e+003,1.445465e+001
2.142950e+003,1.419824e+001
2.143915e+003,1.411433e+001
2.144879e+003,1.232545e+001
2.145843e+003,1.017296e+001
2.146807e+003,1.029880e+001
2.147772e+003,1.227025e+001
2.148736e+003,1.402306e+001
2.149700e+003,1.479967e+001
2.150664e+003,1.475150e+001
2.151629e+003,1.414059e+001
2.152593e+003,1.412903e+001
2.153557e+003,1.606209e+001
2.154521e+003,1.837228e+001
2.155486e+003,1.852707e+001
2.156450e+003,1.784251e+001
2.157414e+003,1.919994e+001
2.158378e+003,2.121320e+001
2.159343e+003,2.084514e+001
2.160307e+003,1.842395e+001
2.161271e+003,1.512875e+001
2.162235e+003,1.176671e+001
2.163199e+003,1.030006e+001
2.164164e+003,1.155629e+001
2.165128e+003,1.348863e+001
2.166092e+003,1.449254e+001
2.167056e+003,1.494684e+001
2.168021e+003,1.508997e+001
2.168985e+003,1.449763e+001
2.169949e+003,1.236902e+001
2.170913e+003,9.771439e+000
2.171877e+003,9.332138e+000
2.172842e+003,1.075391e+001
2.173806e+003,1.161746e+001
2.174770e+003,1.131168e+001
2.175734e+003,1.081099e+001
2.176699e+003,1.058533e+001
2.177663e+003,1.049533e+001
2.178627e+003,1.057216e+001
2.179591e+003,1.071011e+001
2.180556e+003,1.047134e+001
2.181520e+003,9.818024e+000
2.182484e+003,9.047195e+000
2.183448e+003,8.425323e+000
2.184413e+003,8.357117e+000
2.185377e+003,8.596741e+000
2.186341e+003,7.816376e+000
2.187305e+003,6.083527e+000
2.188270e+003,6.149658e+000
2.189234e+003,9.078781e+000
2.190198e+003,1.134613e+001
2.191162e+003,9.639633e+000
2.192126e+003,6.655457e+000
2.193091e+003,7.139633e+000
2.194055e+003,9.456894e+000
2.195019e+003,9.535065e+000
2.195983e+003,8.361679e+000
2.196948e+003,8.182190e+000
2.197912e+003,8.892822e+000
2.198876e+003,9.952652e+000
2.199840e+003,1.083656e+001
2.200804e+003,9.922348e+000
2.201769e+003,6.859222e+000
2.202733e+003,4.346909e+000
2.203697e+003,4.556839e+000
2.204661e+003,5.756683e+000
2.205626e+003,5.459244e+000
2.206590e+003,4.659500e+000
2.207554e+003,5.163986e+000
2.208518e+003,6.313995e+000
2.209483e+003,7.372314e+000
2.210447e+003,8.352478e+000
2.211411e+003,8.967606e+000
2.212375e+003,9.130875e+000
2.213340e+003,8.689606e+000
2.214304e+003,7.709106e+000
2.215268e+003,6.577103e+000
2.216232e+003,5.334030e+000
2.217197e+003,4.283875e+000
2.218161e+003,4.188385e+000
2.219125e+003,4.660370e+000
2.220089e+003,5.302429e+000
2.221053e+003,6.026047e+000
2.222018e+003,5.236038e+000
2.222982e+003,3.423645e+000
2.223946e+003,4.038895e+000
2.224910e+003,6.639893e+000
2.225875e+003,6.327881e+000
2.226839e+003,2.495041e+000
2.227803e+003,0.000000e+000
2.228767e+003,1.182144e+000
2.229731e+003,3.607864e+000
2.230696e+003,5.558289e+000
2.231660e+003,6.874008e+000
2.232624e+003,7.819641e+000
2.233588e+003,8.214157e+000
2.234553e+003,6.386490e+000
2.235517e+003,3.710449e+000
2.236481e+003,3.185974e+000
2.237445e+003,4.010422e+000
2.238410e+003,4.023117e+000
2.239374e+003,3.157791e+000
2.240338e+003,2.225189e+000
2.241302e+003,1.531357e+000
2.242267e+003,1.361496e+000
2.243231e+003,1.965881e+000
2.244195e+003,2.951096e+000
2.245159e+003,3.957108e+000
2.246124e+003,4.780075e+000
2.247088e+003,5.283264e+000
2.248052e+003,5.416550e+000
2.249016e+003,5.644455e+000
2.249980e+003,5.616302e+000
2.250945e+003,3.850662e+000
2.251909e+003,1.288376e+000
2.252873e+003,5.957031e-001
2.253837e+003,1.966431e+000
2.254802e+003,3.333374e+000
2.255766e+003,3.954117e+000
2.256730e+003,4.366516e+000
2.257694e+003,4.597549e+000
2.258658e+003,4.796738e+000
2.259623e+003,5.110596e+000
2.260587e+003,5.483139e+000
2.261551e+003,6.160919e+000
2.262515e+003,6.745682e+000
2.263480e+003,6.967346e+000
2.264444e+003,6.775421e+000
2.265408e+003,5.440323e+000
2.266372e+003,3.168182e+000
2.267337e+003,1.735123e+000
2.268301e+003,1.744781e+000
2.269265e+003,2.002518e+000
2.270229e+003,2.775482e+000
2.271194e+003,4.005234e+000
2.272158e+003,4.019226e+000
2.273122e+003,4.316177e+000
2.274086e+003,7.395828e+000
2.275051e+003,1.013847e+001
2.276015e+003,9.694794e+000
2.276979e+003,8.127869e+000
2.277943e+003,7.733017e+000
2.278907e+003,8.167038e+000
2.279872e+003,8.184967e+000
2.280836e+003,7.462006e+000
2.281800e+003,6.828995e+000
2.282764e+003,6.845123e+000
2.283729e+003,6.993942e+000
2.284693e+003,7.852036e+000
2.285657e+003,8.482483e+000
2.286621e+003,7.678711e+000
2.287585e+003,6.203033e+000
2.288550e+003,3.899536e+000
2.289514e+003,2.643646e+000
2.290478e+003,4.589966e+000
2.291442e+003,8.192337e+000
2.292407e+003,1.101945e+001
2.293371e+003,1.281987e+001
2.294335e+003,1.319881e+001
2.295299e+003,1.182755e+001
2.296264e+003,1.060051e+001
2.297228e+003,9.474289e+000
2.298192e+003,9.166733e+000
2.299156e+003,1.024284e+001
2.300121e+003,1.187262e+001
2.301085e+003,1.357584e+001
2.302049e+003,1.477837e+001
2.303013e+003,1.534712e+001
2.303978e+003,1.580136e+001
2.304942e+003,1.655884e+001
2.305906e+003,1.726964e+001
2.306870e+003,1.737674e+001
2.307834e+003,1.693680e+001
2.308799e+003,1.638309e+001
2.309763e+003,1.591061e+001
2.310727e+003,1.591568e+001
2.311691e+003,1.609993e+001
2.312656e+003,1.762112e+001
2.313620e+003,2.078125e+001
2.314584e+003,2.262355e+001
2.315548e+003,2.206534e+001
2.316512e+003,2.069670e+001
2.317477e+003,1.982368e+001
2.318441e+003,1.927570e+001
2.319405e+003,1.816586e+001
2.320369e+003,1.742035e+001
2.321334e+003,1.971652e+001
2.322298e+003,2.364027e+001
2.323262e+003,2.583553e+001
2.324226e+003,2.754083e+001
2.325191e+003,3.151149e+001
2.326155e+003,3.693216e+001
2.327119e+003,4.131381e+001
2.328083e+003,4.370172e+001
2.329048e+003,4.316089e+001
2.330012e+003,4.007887e+001
2.330976e+003,3.745905e+001
2.331940e+003,3.663846e+001
2.332905e+003,3.666571e+001
2.333869e+003,3.778859e+001
2.334833e+003,3.935266e+001
2.335797e+003,4.075891e+001
2.336761e+003,4.211307e+001
2.337726e+003,4.312379e+001
2.338690e+003,4.340967e+001
2.339654e+003,4.245636e+001
2.340618e+003,4.148360e+001
2.341583e+003,4.287305e+001
2.342547e+003,4.634238e+001
2.343511e+003,4.882855e+001
2.344475e+003,4.925453e+001
2.345439e+003,4.984270e+001
2.346404e+003,5.164868e+001
2.347368e+003,5.296922e+001
2.348332e+003,5.309464e+001
2.349296e+003,5.390936e+001
2.350261e+003,5.682463e+001
2.351225e+003,6.005391e+001
2.352189e+003,6.138582e+001
2.353153e+003,6.247946e+001
2.354118e+003,6.560658e+001
2.355082e+003,6.980771e+001
2.356046e+003,7.353748e+001
2.357010e+003,7.712941e+001
2.357975e+003,7.974242e+001
2.358939e+003,8.104027e+001
2.359903e+003,8.214107e+001
2.360867e+003,8.184937e+001
2.361832e+003,8.279044e+001
2.362796e+003,8.661128e+001
2.363760e+003,8.979008e+001
2.364724e+003,9.125076e+001
2.365688e+003,9.298764e+001
2.366653e+003,9.555312e+001
2.367617e+003,9.764388e+001
2.368581e+003,9.834601e+001
2.369545e+003,9.874879e+001
2.370510e+003,1.011263e+002
2.371474e+003,1.048970e+002
2.372438e+003,1.065142e+002
2.373402e+003,1.064989e+002
2.374366e+003,1.080308e+002
2.375331e+003,1.109817e+002
2.376295e+003,1.138270e+002
2.377259e+003,1.163478e+002
2.378223e+003,1.190959e+002
2.379188e+003,1.219842e+002
2.380152e+003,1.238465e+002
2.381116e+003,1.241982e+002
2.382080e+003,1.239972e+002
2.383045e+003,1.234633e+002
2.384009e+003,1.235511e+002
2.384973e+003,1.256089e+002
2.385937e+003,1.285017e+002
2.386902e+003,1.323266e+002
2.387866e+003,1.359778e+002
2.388830e+003,1.374276e+002
2.389794e+003,1.372465e+002
2.390759e+003,1.362229e+002
2.391723e+003,1.349662e+002
2.392687e+003,1.347620e+002
2.393651e+003,1.360806e+002
2.394615e+003,1.380119e+002
2.395580e+003,1.403249e+002
2.396544e+003,1.418246e+002
2.397508e+003,1.414222e+002
2.398472e+003,1.414900e+002
2.399437e+003,1.436224e+002
2.400401e+003,1.449563e+002
2.401365e+003,1.433367e+002
2.402329e+003,1.424666e+002
2.403293e+003,1.448708e+002
2.404258e+003,1.482123e+002
2.405222e+003,1.504340e+002
2.406186e+003,1.518862e+002
2.407150e+003,1.527357e+002
2.408115e+003,1.528061e+002
2.409079e+003,1.513055e+002
2.410043e+003,1.483633e+002
2.411007e+003,1.488034e+002
2.411972e+003,1.524228e+002
2.412936e+003,1.543846e+002
2.413900e+003,1.539476e+002
2.414864e+003,1.526458e+002
2.415829e+003,1.515703e+002
2.416793e+003,1.526764e+002
2.417757e+003,1.564543e+002
2.418721e+003,1.594173e+002
2.419686e+003,1.589517e+002
2.420650e+003,1.571919e+002
2.421614e+003,1.551882e+002
2.422578e+003,1.540190e+002
2.423542e+003,1.555351e+002
2.424507e+003,1.575478e+002
2.425471e+003,1.581758e+002
2.426435e+003,1.581752e+002
2.427399e+003,1.573185e+002
2.428364e+003,1.563505e+002
2.429328e+003,1.581035e+002
2.430292e+003,1.623278e+002
2.431256e+003,1.644235e+002
2.432220e+003,1.632159e+002
2.433185e+003,1.629425e+002
2.434149e+003,1.655626e+002
2.435113e+003,1.655329e+002
2.436077e+003,1.611907e+002
2.437042e+003,1.576341e+002
2.438006e+003,1.562999e+002
2.438970e+003,1.548429e+002
2.439934e+003,1.520813e+002
2.440899e+003,1.492558e+002
2.441863e+003,1.473765e+002
2.442827e+003,1.467688e+002
2.443791e+003,1.477337e+002
2.444756e+003,1.490489e+002
2.445720e+003,1.476900e+002
2.446684e+003,1.444318e+002
2.447648e+003,1.428663e+002
2.448613e+003,1.427360e+002
2.449577e+003,1.435224e+002
2.450541e+003,1.444970e+002
2.451505e+003,1.432008e+002
2.452469e+003,1.400015e+002
2.453434e+003,1.375173e+002
2.454398e+003,1.360025e+002
2.455362e+003,1.338937e+002
2.456326e+003,1.313433e+002
2.457291e+003,1.298171e+002
2.458255e+003,1.296216e+002
2.459219e+003,1.297723e+002
2.460183e+003,1.296888e+002
2.461147e+003,1.287317e+002
2.462112e+003,1.272676e+002
2.463076e+003,1.258967e+002
2.464040e+003,1.244306e+002
2.465004e+003,1.223718e+002
2.465969e+003,1.193561e+002
2.466933e+003,1.167889e+002
2.467897e+003,1.165249e+002
2.468861e+003,1.177204e+002
2.469826e+003,1.176526e+002
2.470790e+003,1.162253e+002
2.471754e+003,1.165764e+002
2.472718e+003,1.192737e+002
2.473683e+003,1.194131e+002
2.474647e+003,1.159797e+002
2.475611e+003,1.150645e+002
2.476575e+003,1.182462e+002
2.477540e+003,1.200302e+002
2.478504e+003,1.179132e+002
2.479468e+003,1.142430e+002
2.480432e+003,1.106650e+002
2.481396e+003,1.079646e+002
2.482361e+003,1.072220e+002
2.483325e+003,1.078612e+002
2.484289e+003,1.093207e+002
2.485253e+003,1.104104e+002
2.486218e+003,1.096137e+002
2.487182e+003,1.086400e+002
2.488146e+003,1.109778e+002
2.489110e+003,1.137901e+002
2.490074e+003,1.116764e+002
2.491039e+003,1.066571e+002
2.492003e+003,1.047591e+002
2.492967e+003,1.055780e+002
2.493931e+003,1.041376e+002
2.494896e+003,9.994435e+001
2.495860e+003,9.809537e+001
2.496824e+003,9.949785e+001
2.497788e+003,1.003673e+002
2.498753e+003,9.987950e+001
2.499717e+003,9.963228e+001
2.500681e+003,1.002635e+002
2.501645e+003,1.006218e+002
2.502610e+003,9.997615e+001
2.503574e+003,9.904741e+001
2.504538e+003,9.867967e+001
2.505502e+003,9.912628e+001
2.506467e+003,1.004033e+002
2.507431e+003,1.014738e+002
2.508395e+003,1.015701e+002
2.509359e+003,1.010216e+002
2.510323e+003,9.945862e+001
2.511288e+003,9.783536e+001
2.512252e+003,9.754999e+001
2.513216e+003,9.796991e+001
2.514180e+003,9.780203e+001
2.515145e+003,9.738412e+001
2.516109e+003,9.805940e+001
2.517073e+003,9.981470e+001
2.518037e+003,1.007827e+002
2.519001e+003,1.004866e+002
2.519966e+003,1.004517e+002
2.520930e+003,1.008826e+002
2.521894e+003,1.009937e+002
2.522858e+003,1.006623e+002
2.523823e+003,1.003857e+002
2.524787e+003,1.002287e+002
2.525751e+003,1.003290e+002
2.526715e+003,1.008017e+002
2.527680e+003,1.007134e+002
2.528644e+003,9.942647e+001
2.529608e+003,9.845709e+001
2.530572e+003,9.929930e+001
2.531537e+003,1.004823e+002
2.532501e+003,1.007878e+002
2.533465e+003,1.003838e+002
2.534429e+003,9.870532e+001
2.535394e+003,9.730865e+001
2.536358e+003,9.816840e+001
2.537322e+003,9.961934e+001
2.538286e+003,9.929121e+001
2.539250e+003,9.795389e+001
2.540215e+003,9.778181e+001
2.541179e+003,9.872520e+001
2.542143e+003,9.909140e+001
2.543107e+003,9.931137e+001
2.544072e+003,9.972755e+001
2.545036e+003,9.964259e+001
2.546000e+003,1.002133e+002
2.546964e+003,1.016415e+002
2.547928e+003,1.020763e+002
2.548893e+003,1.011193e+002
2.549857e+003,9.948930e+001
2.550821e+003,9.763817e+001
2.551785e+003,9.565192e+001
2.552750e+003,9.356194e+001
2.553714e+003,9.172777e+001
2.554678e+003,9.040195e+001
2.555642e+003,9.033124e+001
2.556607e+003,9.312589e+001
2.557571e+003,9.539412e+001
2.558535e+003,9.386955e+001
2.559499e+003,9.119682e+001
2.560464e+003,9.015993e+001
2.561428e+003,8.994983e+001
2.562392e+003,8.900978e+001
2.563356e+003,8.725391e+001
2.564321e+003,8.475923e+001
2.565285e+003,8.227980e+001
2.566249e+003,8.182185e+001
2.567213e+003,8.299876e+001
2.568177e+003,8.333537e+001
2.569142e+003,8.293221e+001
2.570106e+003,8.134363e+001
2.571070e+003,7.902879e+001
2.572034e+003,7.814505e+001
2.572999e+003,7.885179e+001
2.573963e+003,7.938681e+001
2.574927e+003,7.916106e+001
2.575891e+003,8.000206e+001
2.576855e+003,8.231688e+001
2.577820e+003,8.275038e+001
2.578784e+003,7.981123e+001
2.579748e+003,7.655656e+001
2.580712e+003,7.414148e+001
2.581677e+003,7.227644e+001
2.582641e+003,7.011707e+001
2.583605e+003,6.813716e+001
2.584569e+003,6.662372e+001
2.585534e+003,6.622000e+001
2.586498e+003,6.801875e+001
2.587462e+003,6.977248e+001
2.588426e+003,6.880357e+001
2.589391e+003,6.681187e+001
2.590355e+003,6.728954e+001
2.591319e+003,6.928726e+001
2.592283e+003,6.980481e+001
2.593248e+003,6.914452e+001
2.594212e+003,6.784985e+001
2.595176e+003,6.616150e+001
2.596140e+003,6.408949e+001
2.597104e+003,6.227893e+001
2.598069e+003,6.265405e+001
2.599033e+003,6.419333e+001
2.599997e+003,6.369919e+001
2.600961e+003,6.105928e+001
2.601926e+003,5.870064e+001
2.602890e+003,5.683904e+001
2.603854e+003,5.570895e+001
2.604818e+003,5.512706e+001
2.605782e+003,5.498241e+001
2.606747e+003,5.596893e+001
2.607711e+003,5.593021e+001
2.608675e+003,5.421428e+001
2.609639e+003,5.361617e+001
2.610604e+003,5.518810e+001
2.611568e+003,5.640504e+001
2.612532e+003,5.569025e+001
2.613496e+003,5.476212e+001
2.614461e+003,5.490841e+001
2.615425e+003,5.560510e+001
2.616389e+003,5.813591e+001
2.617353e+003,5.906738e+001
2.618318e+003,5.322929e+001
2.619282e+003,4.782883e+001
2.620246e+003,5.013309e+001
2.621210e+003,5.472532e+001
2.622175e+003,5.562928e+001
2.623139e+003,5.447058e+001
2.624103e+003,5.359158e+001
2.625067e+003,5.258036e+001
2.626031e+003,5.156744e+001
2.626996e+003,5.134221e+001
2.627960e+003,5.097649e+001
2.628924e+003,5.008836e+001
2.629888e+003,5.028674e+001
2.630853e+003,5.117850e+001
2.631817e+003,5.279234e+001
2.632781e+003,5.501075e+001
2.633745e+003,5.427601e+001
2.634709e+003,5.059335e+001
2.635674e+003,4.843932e+001
2.636638e+003,4.885205e+001
2.637602e+003,4.961687e+001
2.638566e+003,5.142236e+001
2.639531e+003,5.155918e+001
2.640495e+003,4.593104e+001
2.641459e+003,4.351128e+001
2.642423e+003,4.634471e+001
2.643388e+003,4.781215e+001
2.644352e+003,4.612550e+001
2.645316e+003,4.591364e+001
2.646280e+003,4.876019e+001
2.647245e+003,5.019112e+001
2.648209e+003,4.821790e+001
2.649173e+003,4.531270e+001
2.650137e+003,4.238148e+001
2.651102e+003,4.061440e+001
2.652066e+003,4.128937e+001
2.653030e+003,4.209015e+001
2.653994e+003,4.282584e+001
2.654958e+003,4.375872e+001
2.655923e+003,4.558485e+001
2.656887e+003,4.687629e+001
2.657851e+003,4.502786e+001
2.658815e+003,4.243233e+001
2.659780e+003,4.210186e+001
2.660744e+003,4.308488e+001
2.661708e+003,4.345323e+001
2.662672e+003,4.358205e+001
2.663636e+003,4.479568e+001
2.664601e+003,4.614739e+001
2.665565e+003,4.393709e+001
2.666529e+003,4.022861e+001
2.667493e+003,3.935837e+001
2.668458e+003,4.060070e+001
2.669422e+003,4.228416e+001
2.670386e+003,4.307179e+001
2.671350e+003,4.145001e+001
2.672315e+003,3.847706e+001
2.673279e+003,3.737267e+001
2.674243e+003,3.795238e+001
2.675207e+003,3.754015e+001
2.676172e+003,3.601048e+001
2.677136e+003,3.504865e+001
2.678100e+003,3.498767e+001
2.679064e+003,3.531094e+001
2.680029e+003,3.536710e+001
2.680993e+003,3.468761e+001
2.681957e+003,3.365952e+001
2.682921e+003,3.292595e+001
2.683885e+003,3.226650e+001
2.684850e+003,3.080968e+001
2.685814e+003,2.867184e+001
2.686778e+003,2.778786e+001
2.687742e+003,2.880321e+001
2.688707e+003,3.029148e+001
2.689671e+003,3.191476e+001
2.690635e+003,3.196596e+001
2.691599e+003,2.999966e+001
2.692563e+003,2.900081e+001
2.693528e+003,3.047311e+001
2.694492e+003,3.176638e+001
2.695456e+003,3.092117e+001
2.696420e+003,2.917505e+001
2.697385e+003,2.761041e+001
2.698349e+003,2.666190e+001
2.699313e+003,2.744003e+001
2.700277e+003,2.877814e+001
2.701242e+003,2.947381e+001
2.702206e+003,2.914442e+001
2.703170e+003,2.716711e+001
2.704134e+003,2.519703e+001
2.705099e+003,2.554084e+001
2.706063e+003,2.635561e+001
2.707027e+003,2.515874e+001
2.707991e+003,2.313201e+001
2.708956e+003,2.250862e+001
2.709920e+003,2.250967e+001
2.710884e+003,2.210876e+001
2.711848e+003,2.171245e+001
2.712813e+003,2.137238e+001
2.713777e+003,2.147166e+001
2.714741e+003,2.185604e+001
2.715705e+003,2.165472e+001
2.716669e+003,2.155585e+001
2.717634e+003,2.163152e+001
2.718598e+003,2.057121e+001
2.719562e+003,1.913004e+001
2.720526e+003,1.908621e+001
2.721490e+003,1.902349e+001
2.722455e+003,1.765562e+001
2.723419e+003,1.581378e+001
2.724383e+003,1.573786e+001
2.725347e+003,1.729501e+001
2.726312e+003,1.927899e+001
2.727276e+003,2.048707e+001
2.728240e+003,1.900743e+001
2.729204e+003,1.635002e+001
2.730169e+003,1.627555e+001
2.731133e+003,1.846188e+001
2.732097e+003,1.898687e+001
2.733061e+003,1.659459e+001
2.734026e+003,1.482209e+001
2.734990e+003,1.626637e+001
2.735954e+003,1.696877e+001
2.736918e+003,1.557160e+001
2.737883e+003,1.370766e+001
2.738847e+003,1.145403e+001
2.739811e+003,1.163387e+001
2.740775e+003,1.477959e+001
2.741740e+003,1.614121e+001
2.742704e+003,1.407825e+001
2.743668e+003,1.170416e+001
2.744632e+003,9.904762e+000
2.745596e+003,8.502831e+000
2.746561e+003,5.539528e+000
2.747525e+003,4.257523e+000
2.748489e+003,8.935577e+000
2.749453e+003,1.180398e+001
2.750417e+003,1.069186e+001
2.751382e+003,9.767395e+000
2.752346e+003,1.045873e+001
2.753310e+003,1.069015e+001
2.754274e+003,9.032623e+000
2.755239e+003,8.369743e+000
2.756203e+003,1.260630e+001
2.757167e+003,1.607873e+001
2.758131e+003,1.167039e+001
2.759096e+003,7.061752e+000
2.760060e+003,7.908005e+000
2.761024e+003,9.542526e+000
2.761988e+003,8.891373e+000
2.762953e+003,8.457291e+000
2.763917e+003,1.009874e+001
2.764881e+003,1.081963e+001
2.765845e+003,7.428238e+000
2.766810e+003,3.873421e+000
2.767774e+003,6.802208e+000
2.768738e+003,1.173981e+001
2.769702e+003,1.094852e+001
2.770667e+003,8.345833e+000
2.771631e+003,6.757217e+000
2.772595e+003,5.594284e+000
2.773559e+003,6.259262e+000
2.774523e+003,7.448700e+000
2.775488e+003,7.709740e+000
2.776452e+003,7.902878e+000
2.777416e+003,7.134193e+000
2.778380e+003,4.873589e+000
2.779344e+003,5.627556e+000
2.780309e+003,8.824837e+000
2.781273e+003,6.192184e+000
2.782237e+003,2.444260e+000
2.783201e+003,4.901390e+000
2.784166e+003,8.384315e+000
2.785130e+003,8.912666e+000
2.786094e+003,8.369812e+000
2.787058e+003,9.362206e+000
2.788023e+003,1.140962e+001
2.788987e+003,1.197404e+001
2.789951e+003,1.108884e+001
2.790915e+003,1.072209e+001
2.791880e+003,1.077883e+001
2.792844e+003,9.148834e+000
2.793808e+003,7.004517e+000
2.794772e+003,7.633080e+000
2.795737e+003,8.810471e+000
2.796701e+003,7.751938e+000
2.797665e+003,5.804512e+000
2.798629e+003,4.957207e+000
2.799594e+003,5.358490e+000
2.800558e+003,5.678055e+000
2.801522e+003,5.558868e+000
2.802486e+003,5.402168e+000
2.803450e+003,4.543106e+000
2.804415e+003,4.573006e+000
2.805379e+003,5.507759e+000
2.806343e+003,6.503761e+000
2.807307e+003,8.544525e+000
2.808271e+003,8.942802e+000
2.809236e+003,7.108162e+000
2.810200e+003,7.725426e+000
2.811164e+003,1.093586e+001
2.812128e+003,1.106692e+001
2.813093e+003,7.695496e+000
2.814057e+003,6.874229e+000
2.815021e+003,7.182373e+000
2.815985e+003,6.196655e+000
2.816950e+003,5.629181e+000
2.817914e+003,5.174835e+000
2.818878e+003,4.274055e+000
2.819842e+003,3.668457e+000
2.820807e+003,3.904259e+000
2.821771e+003,4.729744e+000
2.822735e+003,5.383316e+000
2.823699e+003,6.220886e+000
2.824664e+003,8.052452e+000
2.825628e+003,7.635254e+000
2.826592e+003,4.206787e+000
2.827556e+003,4.025848e+000
2.828521e+003,6.337677e+000
2.829485e+003,6.776077e+000
2.830449e+003,5.990303e+000
2.831413e+003,6.346214e+000
2.832377e+003,7.433784e+000
2.833342e+003,7.886864e+000
2.834306e+003,7.743065e+000
2.835270e+003,7.268463e+000
2.836234e+003,6.316292e+000
2.837198e+003,6.537483e+000
2.838163e+003,8.853127e+000
2.839127e+003,9.870110e+000
2.840091e+003,9.491783e+000
2.841055e+003,8.360733e+000
2.842020e+003,6.642548e+000
2.842984e+003,7.911156e+000
2.843948e+003,1.192248e+001
2.844912e+003,1.453660e+001
2.845877e+003,1.481725e+001
2.846841e+003,1.360165e+001
2.847805e+003,1.086410e+001
2.848769e+003,1.088191e+001
2.849734e+003,1.590388e+001
2.850698e+003,1.678489e+001
2.851662e+003,1.303531e+001
2.852626e+003,1.148217e+001
2.853591e+003,1.273783e+001
2.854555e+003,1.334748e+001
2.855519e+003,1.260845e+001
2.856483e+003,1.193427e+001
2.857448e+003,1.156364e+001
2.858412e+003,1.079527e+001
2.859376e+003,9.861542e+000
2.860340e+003,8.728851e+000
2.861304e+003,6.477539e+000
2.862269e+003,6.253227e+000
2.863233e+003,7.805191e+000
2.864197e+003,7.877518e+000
2.865161e+003,7.113686e+000
2.866125e+003,7.596878e+000
2.867090e+003,8.964020e+000
2.868054e+003,9.930977e+000
2.869018e+003,1.007504e+001
2.869982e+003,9.243774e+000
2.870947e+003,8.001343e+000
2.871911e+003,7.892601e+000
2.872875e+003,8.217430e+000
2.873839e+003,8.075989e+000
2.874804e+003,7.658737e+000
2.875768e+003,8.250557e+000
2.876732e+003,9.687485e+000
2.877696e+003,9.323547e+000
2.878661e+003,7.498894e+000
2.879625e+003,8.018738e+000
2.880589e+003,1.124301e+001
2.881553e+003,1.272421e+001
2.882518e+003,1.118842e+001
2.883482e+003,1.118678e+001
2.884446e+003,1.337132e+001
2.885410e+003,1.307943e+001
2.886375e+003,1.040031e+001
2.887339e+003,9.923241e+000
2.888303e+003,1.160203e+001
2.889267e+003,1.257559e+001
2.890231e+003,1.273539e+001
2.891196e+003,1.438753e+001
2.892160e+003,1.756923e+001
2.893124e+003,1.855675e+001
2.894088e+003,1.652990e+001
2.895052e+003,1.557307e+001
2.896017e+003,1.577338e+001
2.896981e+003,1.559927e+001
2.897945e+003,1.525465e+001
2.898909e+003,1.706303e+001
2.899874e+003,2.001997e+001
2.900838e+003,2.008248e+001
2.901802e+003,1.775244e+001
2.902766e+003,1.666034e+001
2.903731e+003,1.736351e+001
2.904695e+003,1.863268e+001
2.905659e+003,2.040461e+001
2.906623e+003,2.138159e+001
2.907588e+003,2.162929e+001
2.908552e+003,2.211818e+001
2.909516e+003,2.296579e+001
2.910480e+003,2.506922e+001
2.911445e+003,2.740309e+001
2.912409e+003,2.688073e+001
2.913373e+003,2.462654e+001
2.914337e+003,2.493064e+001
2.915302e+003,2.768748e+001
2.916266e+003,3.000903e+001
2.917230e+003,3.187017e+001
2.918194e+003,3.305018e+001
2.919158e+003,3.357033e+001
2.920123e+003,3.304300e+001
2.921087e+003,3.225257e+001
2.922051e+003,3.310915e+001
2.923015e+003,3.478289e+001
2.923979e+003,3.529890e+001
2.924944e+003,3.525370e+001
2.925908e+003,3.672367e+001
2.926872e+003,3.899152e+001
2.927836e+003,3.978320e+001
2.928801e+003,3.933432e+001
2.929765e+003,3.779689e+001
2.930729e+003,3.646701e+001
2.931693e+003,3.930482e+001
2.932658e+003,4.316659e+001
2.933622e+003,4.251088e+001
2.934586e+003,4.053023e+001
2.935550e+003,4.297118e+001
2.936515e+003,4.698735e+001
2.937479e+003,4.857471e+001
2.938443e+003,4.865237e+001
2.939407e+003,4.920713e+001
2.940372e+003,4.987167e+001
2.941336e+003,4.953081e+001
2.942300e+003,4.918142e+001
2.943264e+003,5.057360e+001
2.944229e+003,5.204324e+001
2.945193e+003,5.161862e+001
2.946157e+003,5.074500e+001
2.947121e+003,5.057996e+001
2.948085e+003,5.090642e+001
2.949050e+003,5.148277e+001
2.950014e+003,5.233190e+001
2.950978e+003,5.368736e+001
2.951942e+003,5.503711e+001
2.952906e+003,5.642046e+001
2.953871e+003,5.673591e+001
2.954835e+003,5.353038e+001
2.955799e+003,5.139782e+001
2.956763e+003,5.293288e+001
2.957728e+003,5.535397e+001
2.958692e+003,5.695300e+001
2.959656e+003,5.830981e+001
2.960620e+003,6.002235e+001
2.961585e+003,6.108613e+001
2.962549e+003,5.994259e+001
2.963513e+003,5.876284e+001
2.964477e+003,5.854697e+001
2.965442e+003,5.883424e+001
2.966406e+003,5.954500e+001
2.967370e+003,6.056517e+001
2.968334e+003,6.187739e+001
2.969299e+003,6.234494e+001
2.970263e+003,6.145650e+001
2.971227e+003,6.025694e+001
2.972191e+003,5.921250e+001
2.973156e+003,5.910511e+001
2.974120e+003,6.132482e+001
2.975084e+003,6.253735e+001
2.976048e+003,6.187932e+001
2.977012e+003,6.226756e+001
2.977977e+003,6.411832e+001
2.978941e+003,6.630949e+001
2.979905e+003,6.835389e+001
2.980869e+003,6.932452e+001
2.981833e+003,6.907772e+001
2.982798e+003,6.926967e+001
2.983762e+003,7.063054e+001
2.984726e+003,7.119241e+001
2.985690e+003,7.075053e+001
2.986655e+003,6.980111e+001
2.987619e+003,6.849533e+001
2.988583e+003,6.885463e+001
2.989547e+003,7.053438e+001
2.990512e+003,7.172337e+001
2.991476e+003,7.201493e+001
2.992440e+003,7.095380e+001
2.993404e+003,6.900745e+001
2.994369e+003,6.983859e+001
2.995333e+003,7.331032e+001
2.996297e+003,7.445004e+001
2.997261e+003,7.394221e+001
2.998226e+003,7.685898e+001
2.999190e+003,8.104779e+001
3.000154e+003,8.089331e+001
3.001118e+003,7.833450e+001
3.002083e+003,7.707602e+001
3.003047e+003,7.728669e+001
3.004011e+003,7.829352e+001
3.004975e+003,7.984547e+001
3.005939e+003,8.161920e+001
3.006904e+003,8.313930e+001
3.007868e+003,8.207863e+001
3.008832e+003,8.098879e+001
3.009796e+003,8.468163e+001
3.010760e+003,8.917938e+001
3.011725e+003,9.059451e+001
3.012689e+003,9.020199e+001
3.013653e+003,8.895520e+001
3.014617e+003,8.744482e+001
3.015582e+003,8.618892e+001
3.016546e+003,8.550995e+001
3.017510e+003,8.563460e+001
3.018474e+003,8.689851e+001
3.019439e+003,9.083571e+001
3.020403e+003,9.425695e+001
3.021367e+003,9.550225e+001
3.022331e+003,9.538802e+001
3.023296e+003,9.387711e+001
3.024260e+003,9.250989e+001
3.025224e+003,9.206084e+001
3.026188e+003,9.288936e+001
3.027153e+003,9.529016e+001
3.028117e+003,9.786777e+001
3.029081e+003,1.004168e+002
3.030045e+003,1.016432e+002
3.031010e+003,1.008333e+002
3.031974e+003,1.003198e+002
3.032938e+003,1.003675e+002
3.033902e+003,1.027657e+002
3.034866e+003,1.069497e+002
3.035831e+003,1.075217e+002
3.036795e+003,1.038439e+002
3.037759e+003,1.021375e+002
3.038723e+003,1.042633e+002
3.039688e+003,1.050933e+002
3.040652e+003,1.040779e+002
3.041616e+003,1.049363e+002
3.042580e+003,1.072815e+002
3.043544e+003,1.088557e+002
3.044509e+003,1.096184e+002
3.045473e+003,1.100935e+002
3.046437e+003,1.102215e+002
3.047401e+003,1.090480e+002
3.048366e+003,1.075570e+002
3.049330e+003,1.085256e+002
3.050294e+003,1.113286e+002
3.051258e+003,1.139894e+002
3.052223e+003,1.163464e+002
3.053187e+003,1.182748e+002
3.054151e+003,1.194399e+002
3.055115e+003,1.185311e+002
3.056080e+003,1.176953e+002
3.057044e+003,1.196143e+002
3.058008e+003,1.213436e+002
3.058972e+003,1.200145e+002
3.059937e+003,1.190476e+002
3.060901e+003,1.232409e+002
3.061865e+003,1.276461e+002
3.062829e+003,1.258167e+002
3.063793e+003,1.237591e+002
3.064758e+003,1.249371e+002
3.065722e+003,1.269176e+002
3.066686e+003,1.293252e+002
3.067650e+003,1.303326e+002
3.068615e+003,1.293163e+002
3.069579e+003,1.279188e+002
3.070543e+003,1.270229e+002
3.071507e+003,1.274381e+002
3.072471e+003,1.303861e+002
3.073436e+003,1.319246e+002
3.074400e+003,1.311733e+002
3.075364e+003,1.303808e+002
3.076328e+003,1.297352e+002
3.077293e+003,1.297122e+002
3.078257e+003,1.306195e+002
3.079221e+003,1.342578e+002
3.080185e+003,1.395280e+002
3.081150e+003,1.408819e+002
3.082114e+003,1.378726e+002
3.083078e+003,1.363117e+002
3.084042e+003,1.361651e+002
3.085007e+003,1.373092e+002
3.085971e+003,1.389605e+002
3.086935e+003,1.382980e+002
3.087899e+003,1.369246e+002
3.088864e+003,1.379348e+002
3.089828e+003,1.397308e+002
3.090792e+003,1.397007e+002
3.091756e+003,1.388905e+002
3.092720e+003,1.384824e+002
3.093685e+003,1.391208e+002
3.094649e+003,1.436956e+002
3.095613e+003,1.474010e+002
3.096577e+003,1.426278e+002
3.097542e+003,1.379298e+002
3.098506e+003,1.391267e+002
3.099470e+003,1.416335e+002
3.100434e+003,1.440686e+002
3.101398e+003,1.466353e+002
3.102363e+003,1.493640e+002
3.103327e+003,1.505888e+002
3.104291e+003,1.491588e+002
3.105255e+003,1.469056e+002
3.106220e+003,1.430092e+002
3.107184e+003,1.423343e+002
3.108148e+003,1.458424e+002
3.109112e+003,1.459441e+002
3.110077e+003,1.426589e+002
3.111041e+003,1.429448e+002
3.112005e+003,1.468806e+002
3.112969e+003,1.493270e+002
3.113934e+003,1.494379e+002
3.114898e+003,1.500248e+002
3.115862e+003,1.510818e+002
3.116826e+003,1.496287e+002
3.117791e+003,1.468673e+002
3.118755e+003,1.491900e+002
3.119719e+003,1.539641e+002
3.120683e+003,1.570749e+002
3.121647e+003,1.585591e+002
3.122612e+003,1.582886e+002
3.123576e+003,1.576055e+002
3.124540e+003,1.577401e+002
3.125504e+003,1.581589e+002
3.126469e+003,1.579554e+002
3.127433e+003,1.580045e+002
3.128397e+003,1.595624e+002
3.129361e+003,1.614650e+002
3.130325e+003,1.641228e+002
3.131290e+003,1.643562e+002
3.132254e+003,1.605234e+002
3.133218e+003,1.608090e+002
3.134182e+003,1.678059e+002
3.135147e+003,1.718608e+002
3.136111e+003,1.682993e+002
3.137075e+003,1.652543e+002
3.138039e+003,1.661804e+002
3.139004e+003,1.673925e+002
3.139968e+003,1.688098e+002
3.140932e+003,1.696033e+002
3.141896e+003,1.698299e+002
3.142861e+003,1.698397e+002
3.143825e+003,1.699208e+002
3.144789e+003,1.705409e+002
3.145753e+003,1.717537e+002
3.146718e+003,1.734651e+002
3.147682e+003,1.754810e+002
3.148646e+003,1.773050e+002
3.149610e+003,1.788066e+002
3.150574e+003,1.797691e+002
3.151539e+003,1.800518e+002
3.152503e+003,1.789376e+002
3.153467e+003,1.776880e+002
3.154431e+003,1.769964e+002
3.155396e+003,1.772888e+002
3.156360e+003,1.788652e+002
3.157324e+003,1.816829e+002
3.158288e+003,1.861389e+002
3.159252e+003,1.890760e+002
3.160217e+003,1.865074e+002
3.161181e+003,1.848865e+002
3.162145e+003,1.858000e+002
3.163109e+003,1.872935e+002
3.164074e+003,1.890242e+002
3.165038e+003,1.895264e+002
3.166002e+003,1.888977e+002
3.166966e+003,1.891936e+002
3.167931e+003,1.908116e+002
3.168895e+003,1.921875e+002
3.169859e+003,1.931808e+002
3.170823e+003,1.939475e+002
3.171788e+003,1.946739e+002
3.172752e+003,1.971046e+002
3.173716e+003,1.997664e+002
3.174680e+003,1.998447e+002
3.175645e+003,1.982462e+002
3.176609e+003,1.954316e+002
3.177573e+003,1.934921e+002
3.178537e+003,1.946344e+002
3.179501e+003,1.967056e+002
3.180466e+003,1.967704e+002
3.181430e+003,1.964392e+002
3.182394e+003,1.975940e+002
3.183358e+003,1.983999e+002
3.184323e+003,1.978357e+002
3.185287e+003,1.972597e+002
3.186251e+003,1.969726e+002
3.187215e+003,1.977638e+002
3.188179e+003,1.997052e+002
3.189144e+003,2.013383e+002
3.190108e+003,2.021203e+002
3.191072e+003,2.023890e+002
3.192036e+003,2.021442e+002
3.193001e+003,2.019109e+002
3.193965e+003,2.017384e+002
3.194929e+003,2.019742e+002
3.195893e+003,2.025826e+002
3.196858e+003,2.038441e+002
3.197822e+003,2.050648e+002
3.198786e+003,2.044574e+002
3.199750e+003,2.038210e+002
3.200715e+003,2.060879e+002
3.201679e+003,2.088199e+002
3.202643e+003,2.061715e+002
3.203607e+003,2.035632e+002
3.204572e+003,2.089696e+002
3.205536e+003,2.121753e+002
3.206500e+003,2.072688e+002
3.207464e+003,2.028797e+002
3.208428e+003,2.017740e+002
3.209393e+003,2.021290e+002
3.210357e+003,2.030992e+002
3.211321e+003,2.049419e+002
3.212285e+003,2.080583e+002
3.213250e+003,2.101516e+002
3.214214e+003,2.111128e+002
3.215178e+003,2.103412e+002
3.216142e+003,2.085034e+002
3.217106e+003,2.089707e+002
3.218071e+003,2.111036e+002
3.219035e+003,2.131084e+002
3.219999e+003,2.147583e+002
3.220963e+003,2.164460e+002
3.221928e+003,2.175252e+002
3.222892e+003,2.164797e+002
3.223856e+003,2.147444e+002
3.224820e+003,2.144640e+002
3.225785e+003,2.150469e+002
3.226749e+003,2.168084e+002
3.227713e+003,2.179253e+002
3.228677e+003,2.176396e+002
3.229642e+003,2.173320e+002
3.230606e+003,2.176085e+002
3.231570e+003,2.190712e+002
3.232534e+003,2.219994e+002
3.233499e+003,2.237662e+002
3.234463e+003,2.228172e+002
3.235427e+003,2.235093e+002
3.236391e+003,2.257374e+002
3.237355e+003,2.268218e+002
3.238320e+003,2.267924e+002
3.239284e+003,2.254298e+002
3.240248e+003,2.240588e+002
3.241212e+003,2.261928e+002
3.242177e+003,2.290096e+002
3.243141e+003,2.279392e+002
3.244105e+003,2.256868e+002
3.245069e+003,2.279505e+002
3.246033e+003,2.308850e+002
3.246998e+003,2.299759e+002
3.247962e+003,2.291880e+002
3.248926e+003,2.299991e+002
3.249890e+003,2.329099e+002
3.250855e+003,2.378627e+002
3.251819e+003,2.388159e+002
3.252783e+003,2.340352e+002
3.253747e+003,2.319945e+002
3.254712e+003,2.364139e+002
3.255676e+003,2.385877e+002
3.256640e+003,2.380811e+002
3.257604e+003,2.373038e+002
3.258569e+003,2.364880e+002
3.259533e+003,2.357798e+002
3.260497e+003,2.356898e+002
3.261461e+003,2.375430e+002
3.262426e+003,2.400297e+002
3.263390e+003,2.414662e+002
3.264354e+003,2.424198e+002
3.265318e+003,2.437116e+002
3.266282e+003,2.448204e+002
3.267247e+003,2.450551e+002
3.268211e+003,2.450723e+002
3.269175e+003,2.445161e+002
3.270139e+003,2.462063e+002
3.271104e+003,2.505602e+002
3.272068e+003,2.515239e+002
3.273032e+003,2.483450e+002
3.273996e+003,2.478458e+002
3.274960e+003,2.519011e+002
3.275925e+003,2.548157e+002
3.276889e+003,2.563007e+002
3.277853e+003,2.537071e+002
3.278817e+003,2.497997e+002
3.279782e+003,2.539748e+002
3.280746e+003,2.605068e+002
3.281710e+003,2.605704e+002
3.282674e+003,2.585099e+002
3.283639e+003,2.583475e+002
3.284603e+003,2.589476e+002
3.285567e+003,2.592717e+002
3.286531e+003,2.596516e+002
3.287496e+003,2.603694e+002
3.288460e+003,2.612686e+002
3.289424e+003,2.623734e+002
3.290388e+003,2.635173e+002
3.291353e+003,2.645986e+002
3.292317e+003,2.645927e+002
3.293281e+003,2.637643e+002
3.294245e+003,2.636828e+002
3.295209e+003,2.645526e+002
3.296174e+003,2.655601e+002
3.297138e+003,2.666046e+002
3.298102e+003,2.672442e+002
3.299066e+003,2.677776e+002
3.300031e+003,2.690191e+002
3.300995e+003,2.701363e+002
3.301959e+003,2.699492e+002
3.302923e+003,2.699427e+002
3.303887e+003,2.707467e+002
3.304852e+003,2.723657e+002
3.305816e+003,2.747734e+002
3.306780e+003,2.759095e+002
3.307744e+003,2.741504e+002
3.308709e+003,2.726566e+002
3.309673e+003,2.716159e+002
3.310637e+003,2.718435e+002
3.311601e+003,2.733311e+002
3.312566e+003,2.771776e+002
3.313530e+003,2.812788e+002
3.314494e+003,2.797161e+002
3.315458e+003,2.763432e+002
3.316423e+003,2.782307e+002
3.317387e+003,2.820002e+002
3.318351e+003,2.818222e+002
3.319315e+003,2.801650e+002
3.320280e+003,2.777492e+002
3.321244e+003,2.782191e+002
3.322208e+003,2.839445e+002
3.323172e+003,2.866716e+002
3.324136e+003,2.846129e+002
3.325101e+003,2.818141e+002
3.326065e+003,2.800302e+002
3.327029e+003,2.812675e+002
3.327993e+003,2.859901e+002
3.328958e+003,2.898069e+002
3.329922e+003,2.924237e+002
3.330886e+003,2.902628e+002
3.331850e+003,2.865240e+002
3.332814e+003,2.869237e+002
3.333779e+003,2.888849e+002
3.334743e+003,2.896938e+002
3.335707e+003,2.898012e+002
3.336671e+003,2.894455e+002
3.337636e+003,2.910954e+002
3.338600e+003,2.981331e+002
3.339564e+003,3.023617e+002
3.340528e+003,2.978705e+002
3.341493e+003,2.955978e+002
3.342457e+003,2.959291e+002
3.343421e+003,2.957372e+002
3.344385e+003,2.955259e+002
3.345350e+003,2.993418e+002
3.346314e+003,3.050413e+002
3.347278e+003,3.053794e+002
3.348242e+003,3.031776e+002
3.349207e+003,3.053360e+002
3.350171e+003,3.084807e+002
3.351135e+003,3.066592e+002
3.352099e+003,3.043320e+002
3.353063e+003,3.041030e+002
3.354028e+003,3.052240e+002
3.354992e+003,3.075247e+002
3.355956e+003,3.093907e+002
3.356920e+003,3.103163e+002
3.357885e+003,3.112054e+002
3.358849e+003,3.123500e+002
3.359813e+003,3.133520e+002
3.360777e+003,3.141960e+002
3.361741e+003,3.146579e+002
3.362706e+003,3.149909e+002
3.363670e+003,3.159099e+002
3.364634e+003,3.168274e+002
3.365598e+003,3.165878e+002
3.366563e+003,3.170179e+002
3.367527e+003,3.194345e+002
3.368491e+003,3.224744e+002
3.369455e+003,3.254425e+002
3.370420e+003,3.264842e+002
3.371384e+003,3.231365e+002
3.372348e+003,3.206266e+002
3.373312e+003,3.192174e+002
3.374277e+003,3.217656e+002
3.375241e+003,3.263146e+002
3.376205e+003,3.258928e+002
3.377169e+003,3.220542e+002
3.378134e+003,3.205061e+002
3.379098e+003,3.214478e+002
3.380062e+003,3.260787e+002
3.381026e+003,3.308522e+002
3.381990e+003,3.301087e+002
3.382955e+003,3.285569e+002
3.383919e+003,3.284929e+002
3.384883e+003,3.285404e+002
3.385847e+003,3.284109e+002
3.386812e+003,3.284951e+002
3.387776e+003,3.288923e+002
3.388740e+003,3.295912e+002
3.389704e+003,3.304878e+002
3.390668e+003,3.301671e+002
3.391633e+003,3.290801e+002
3.392597e+003,3.304261e+002
3.393561e+003,3.325093e+002
3.394525e+003,3.327526e+002
3.395490e+003,3.323603e+002
3.396454e+003,3.318671e+002
3.397418e+003,3.336140e+002
3.398382e+003,3.388415e+002
3.399347e+003,3.423145e+002
3.400311e+003,3.404395e+002
3.401275e+003,3.394526e+002
3.402239e+003,3.408849e+002
3.403204e+003,3.414110e+002
3.404168e+003,3.411692e+002
3.405132e+003,3.411825e+002
3.406096e+003,3.412138e+002
3.407061e+003,3.397083e+002
3.408025e+003,3.391600e+002
3.408989e+003,3.428671e+002
3.409953e+003,3.463658e+002
3.410917e+003,3.435118e+002
3.411882e+003,3.402654e+002
3.412846e+003,3.411884e+002
3.413810e+003,3.423741e+002
3.414774e+003,3.432876e+002
3.415739e+003,3.426181e+002
3.416703e+003,3.410742e+002
3.417667e+003,3.428300e+002
3.418631e+003,3.470230e+002
3.419595e+003,3.477705e+002
3.420560e+003,3.467144e+002
3.421524e+003,3.494978e+002
3.422488e+003,3.526226e+002
3.423452e+003,3.481331e+002
3.424417e+003,3.451145e+002
3.425381e+003,3.507556e+002
3.426345e+003,3.537324e+002
3.427309e+003,3.512135e+002
3.428274e+003,3.490951e+002
3.429238e+003,3.494068e+002
3.430202e+003,3.506615e+002
3.431166e+003,3.524247e+002
3.432131e+003,3.523940e+002
3.433095e+003,3.510463e+002
3.434059e+003,3.496837e+002
3.435023e+003,3.493152e+002
3.435988e+003,3.516095e+002
3.436952e+003,3.555444e+002
3.437916e+003,3.609168e+002
3.438880e+003,3.630241e+002
3.439844e+003,3.591317e+002
3.440809e+003,3.548636e+002
3.441773e+003,3.526191e+002
3.442737e+003,3.536783e+002
3.443701e+003,3.579770e+002
3.444666e+003,3.616816e+002
3.445630e+003,3.645432e+002
3.446594e+003,3.661761e+002
3.447558e+003,3.671151e+002
3.448522e+003,3.682470e+002
3.449487e+003,3.687600e+002
3.450451e+003,3.676556e+002
3.451415e+003,3.669290e+002
3.452379e+003,3.689719e+002
3.453344e+003,3.708734e+002
3.454308e+003,3.716925e+002
3.455272e+003,3.734564e+002
3.456236e+003,3.759519e+002
3.457201e+003,3.771575e+002
3.458165e+003,3.769390e+002
3.459129e+003,3.751622e+002
3.460093e+003,3.731229e+002
3.461058e+003,3.726090e+002
3.462022e+003,3.738953e+002
3.462986e+003,3.787732e+002
3.463950e+003,3.835847e+002
3.464915e+003,3.858564e+002
3.465879e+003,3.876901e+002
3.466843e+003,3.893101e+002
3.467807e+003,3.870679e+002
3.468771e+003,3.818764e+002
3.469736e+003,3.819141e+002
3.470700e+003,3.869137e+002
3.471664e+003,3.867130e+002
3.472628e+003,3.840613e+002
3.473593e+003,3.882202e+002
3.474557e+003,3.939491e+002
3.475521e+003,3.961171e+002
3.476485e+003,3.960781e+002
3.477449e+003,3.942123e+002
3.478414e+003,3.950072e+002
3.479378e+003,3.994162e+002
3.480342e+003,4.009296e+002
3.481306e+003,3.975919e+002
3.482271e+003,3.996443e+002
3.483235e+003,4.062912e+002
3.484199e+003,4.061909e+002
3.485163e+003,4.036676e+002
3.486128e+003,4.066061e+002
3.487092e+003,4.096547e+002
3.488056e+003,4.088441e+002
3.489020e+003,4.065553e+002
3.489985e+003,4.041144e+002
3.490949e+003,4.032268e+002
3.491913e+003,4.049156e+002
3.492877e+003,4.078313e+002
3.493842e+003,4.117963e+002
3.494806e+003,4.133991e+002
3.495770e+003,4.138582e+002
3.496734e+003,4.169601e+002
3.497698e+003,4.200304e+002
3.498663e+003,4.195504e+002
3.499627e+003,4.184475e+002
3.500591e+003,0.000000e+000
