9.974011e+001,3.902862e+002
1.007043e+002,3.912194e+002
1.016686e+002,3.924003e+002
1.026328e+002,3.934641e+002
1.035970e+002,3.939682e+002
1.045613e+002,3.949502e+002
1.055255e+002,3.956160e+002
1.064897e+002,3.942307e+002
1.074540e+002,3.877535e+002
1.084182e+002,3.819821e+002
1.093824e+002,3.771639e+002
1.103467e+002,3.732388e+002
1.113109e+002,3.698156e+002
1.122751e+002,3.683260e+002
1.132394e+002,3.679190e+002
1.142036e+002,3.679765e+002
1.151678e+002,3.679568e+002
1.161321e+002,3.674160e+002
1.170963e+002,3.661654e+002
1.180605e+002,3.641882e+002
1.190248e+002,3.615624e+002
1.199890e+002,3.584689e+002
1.209532e+002,3.553636e+002
1.219175e+002,3.529273e+002
1.228817e+002,3.508507e+002
1.238459e+002,3.493306e+002
1.248102e+002,3.488281e+002
1.257744e+002,3.509498e+002
1.267386e+002,3.522197e+002
1.277029e+002,3.521395e+002
1.286671e+002,3.505735e+002
1.296313e+002,3.477035e+002
1.305956e+002,3.417151e+002
1.315598e+002,3.361886e+002
1.325240e+002,3.329038e+002
1.334883e+002,3.326512e+002
1.344525e+002,3.343173e+002
1.354167e+002,3.351501e+002
1.363810e+002,3.353540e+002
1.373452e+002,3.353362e+002
1.383094e+002,3.354972e+002
1.392737e+002,3.360198e+002
1.402379e+002,3.350368e+002
1.412021e+002,3.316922e+002
1.421664e+002,3.274383e+002
1.431306e+002,3.245653e+002
1.440948e+002,3.252087e+002
1.450591e+002,3.252008e+002
1.460233e+002,3.232786e+002
1.469875e+002,3.200511e+002
1.479518e+002,3.173865e+002
1.489160e+002,3.175440e+002
1.498802e+002,3.177446e+002
1.508445e+002,3.174114e+002
1.518087e+002,3.164901e+002
1.527729e+002,3.155178e+002
1.537372e+002,3.149564e+002
1.547014e+002,3.140506e+002
1.556656e+002,3.122992e+002
1.566299e+002,3.094698e+002
1.575941e+002,3.057202e+002
1.585583e+002,3.028734e+002
1.595226e+002,3.008285e+002
1.604868e+002,2.995775e+002
1.614510e+002,2.991099e+002
1.624153e+002,2.995018e+002
1.633795e+002,2.995429e+002
1.643438e+002,2.999587e+002
1.653080e+002,3.003438e+002
1.662722e+002,2.999743e+002
1.672365e+002,2.974968e+002
1.682007e+002,2.947010e+002
1.691649e+002,2.923617e+002
1.701292e+002,2.906768e+002
1.710934e+002,2.896145e+002
1.720576e+002,2.890288e+002
1.730219e+002,2.887588e+002
1.739861e+002,2.889085e+002
1.749503e+002,2.893525e+002
1.759146e+002,2.897718e+002
1.768788e+002,2.887191e+002
1.778430e+002,2.871393e+002
1.788073e+002,2.853970e+002
1.797715e+002,2.832803e+002
1.807357e+002,2.800300e+002
1.817000e+002,2.792831e+002
1.826642e+002,2.822761e+002
1.836284e+002,2.855345e+002
1.845927e+002,2.862431e+002
1.855569e+002,2.821015e+002
1.865211e+002,2.769846e+002
1.874854e+002,2.739746e+002
1.884496e+002,2.725558e+002
1.894138e+002,2.718514e+002
1.903781e+002,2.705604e+002
1.913423e+002,2.692010e+002
1.923065e+002,2.687860e+002
1.932708e+002,2.691195e+002
1.942350e+002,2.696626e+002
1.951992e+002,2.692365e+002
1.961635e+002,2.676693e+002
1.971277e+002,2.665138e+002
1.980919e+002,2.662291e+002
1.990562e+002,2.668246e+002
2.000204e+002,2.672975e+002
2.009846e+002,2.674497e+002
2.019489e+002,2.672940e+002
2.029131e+002,2.667399e+002
2.038773e+002,2.658112e+002
2.048416e+002,2.650114e+002
2.058058e+002,2.647937e+002
2.067700e+002,2.647397e+002
2.077343e+002,2.645429e+002
2.086985e+002,2.639799e+002
2.096627e+002,2.631614e+002
2.106270e+002,2.626852e+002
2.115912e+002,2.625095e+002
2.125554e+002,2.623660e+002
2.135197e+002,2.619219e+002
2.144839e+002,2.608933e+002
2.154481e+002,2.595476e+002
2.164124e+002,2.576980e+002
2.173766e+002,2.559261e+002
2.183408e+002,2.551281e+002
2.193051e+002,2.564490e+002
2.202693e+002,2.572986e+002
2.212335e+002,2.567752e+002
2.221978e+002,2.552383e+002
2.231620e+002,2.536196e+002
2.241262e+002,2.532726e+002
2.250904e+002,2.535588e+002
2.260547e+002,2.536420e+002
2.270189e+002,2.532863e+002
2.279831e+002,2.525989e+002
2.289474e+002,2.526051e+002
2.299116e+002,2.533562e+002
2.308758e+002,2.537951e+002
2.318401e+002,2.535918e+002
2.328043e+002,2.528050e+002
2.337685e+002,2.520930e+002
2.347328e+002,2.499514e+002
2.356970e+002,2.481369e+002
2.366612e+002,2.477996e+002
2.376255e+002,2.495957e+002
2.385897e+002,2.512351e+002
2.395539e+002,2.523784e+002
2.405182e+002,2.529788e+002
2.414824e+002,2.527585e+002
2.424466e+002,2.514576e+002
2.434109e+002,2.500207e+002
2.443751e+002,2.494277e+002
2.453393e+002,2.493192e+002
2.463036e+002,2.494554e+002
2.472678e+002,2.496552e+002
2.482320e+002,2.501083e+002
2.491963e+002,2.501472e+002
2.501605e+002,2.492523e+002
2.511247e+002,2.483900e+002
2.520890e+002,2.492868e+002
2.530532e+002,2.545830e+002
2.540174e+002,2.578762e+002
2.549817e+002,2.582081e+002
2.559459e+002,2.569297e+002
2.569102e+002,2.563370e+002
2.578744e+002,2.574244e+002
2.588386e+002,2.582227e+002
2.598029e+002,2.587731e+002
2.607671e+002,2.590934e+002
2.617313e+002,2.591690e+002
2.626956e+002,2.586802e+002
2.636598e+002,2.579274e+002
2.646240e+002,2.567295e+002
2.655883e+002,2.549548e+002
2.665525e+002,2.527536e+002
2.675167e+002,2.517638e+002
2.684810e+002,2.523702e+002
2.694452e+002,2.539717e+002
2.704094e+002,2.571276e+002
2.713737e+002,2.619457e+002
2.723379e+002,2.650853e+002
2.733021e+002,2.653434e+002
2.742664e+002,2.645223e+002
2.752306e+002,2.627440e+002
2.761948e+002,2.601954e+002
2.771591e+002,2.583400e+002
2.781233e+002,2.588759e+002
2.790875e+002,2.604441e+002
2.800518e+002,2.624007e+002
2.810160e+002,2.642449e+002
2.819802e+002,2.656387e+002
2.829445e+002,2.655233e+002
2.839087e+002,2.644165e+002
2.848729e+002,2.634813e+002
2.858372e+002,2.636546e+002
2.868014e+002,2.652940e+002
2.877656e+002,2.666727e+002
2.887299e+002,2.673413e+002
2.896941e+002,2.675976e+002
2.906583e+002,2.679736e+002
2.916226e+002,2.692788e+002
2.925868e+002,2.694733e+002
2.935510e+002,2.672339e+002
2.945153e+002,2.644100e+002
2.954795e+002,2.625140e+002
2.964437e+002,2.624453e+002
2.974080e+002,2.634529e+002
2.983722e+002,2.653363e+002
2.993364e+002,2.677132e+002
3.003007e+002,2.697738e+002
3.012649e+002,2.704322e+002
3.022291e+002,2.694644e+002
3.031934e+002,2.691020e+002
3.041576e+002,2.695274e+002
3.051218e+002,2.704513e+002
3.060861e+002,2.712818e+002
3.070503e+002,2.712496e+002
3.080145e+002,2.712989e+002
3.089788e+002,2.721812e+002
3.099430e+002,2.735374e+002
3.109072e+002,2.746415e+002
3.118715e+002,2.751046e+002
3.128357e+002,2.755952e+002
3.137999e+002,2.756394e+002
3.147642e+002,2.752318e+002
3.157284e+002,2.746206e+002
3.166926e+002,2.744851e+002
3.176569e+002,2.751539e+002
3.186211e+002,2.765748e+002
3.195853e+002,2.785578e+002
3.205496e+002,2.805408e+002
3.215138e+002,2.812436e+002
3.224780e+002,2.797397e+002
3.234423e+002,2.787991e+002
3.244065e+002,2.792319e+002
3.253707e+002,2.806434e+002
3.263350e+002,2.812804e+002
3.272992e+002,2.795209e+002
3.282634e+002,2.789681e+002
3.292277e+002,2.811441e+002
3.301919e+002,2.851748e+002
3.311561e+002,2.881475e+002
3.321204e+002,2.857880e+002
3.330846e+002,2.825833e+002
3.340488e+002,2.810718e+002
3.350131e+002,2.815442e+002
3.359773e+002,2.830649e+002
3.369415e+002,2.839038e+002
3.379058e+002,2.843234e+002
3.388700e+002,2.845059e+002
3.398342e+002,2.844254e+002
3.407985e+002,2.842154e+002
3.417627e+002,2.846883e+002
3.427269e+002,2.859309e+002
3.436912e+002,2.868958e+002
3.446554e+002,2.876683e+002
3.456196e+002,2.883527e+002
3.465839e+002,2.888391e+002
3.475481e+002,2.883494e+002
3.485123e+002,2.884214e+002
3.494765e+002,2.898722e+002
3.504408e+002,2.923374e+002
3.514050e+002,2.943186e+002
3.523692e+002,2.930686e+002
3.533335e+002,2.908482e+002
3.542977e+002,2.897827e+002
3.552619e+002,2.905432e+002
3.562262e+002,2.927601e+002
3.571904e+002,2.944249e+002
3.581546e+002,2.951438e+002
3.591189e+002,2.956913e+002
3.600831e+002,2.959811e+002
3.610473e+002,2.959711e+002
3.620116e+002,2.963753e+002
3.629758e+002,2.986978e+002
3.639400e+002,3.004825e+002
3.649043e+002,3.007695e+002
3.658685e+002,2.996114e+002
3.668327e+002,2.982957e+002
3.677970e+002,2.979837e+002
3.687612e+002,2.981081e+002
3.697254e+002,2.985772e+002
3.706897e+002,2.992082e+002
3.716539e+002,2.996696e+002
3.726181e+002,2.986036e+002
3.735824e+002,2.963404e+002
3.745466e+002,2.951089e+002
3.755108e+002,2.958943e+002
3.764751e+002,2.985659e+002
3.774393e+002,3.003629e+002
3.784035e+002,3.005036e+002
3.793678e+002,3.003446e+002
3.803320e+002,3.001672e+002
3.812962e+002,3.000601e+002
3.822605e+002,3.000148e+002
3.832247e+002,2.995026e+002
3.841889e+002,2.993531e+002
3.851532e+002,3.001361e+002
3.861174e+002,3.016440e+002
3.870816e+002,3.030016e+002
3.880459e+002,3.026166e+002
3.890101e+002,3.016023e+002
3.899743e+002,3.012318e+002
3.909386e+002,3.018749e+002
3.919028e+002,3.034249e+002
3.928670e+002,3.053257e+002
3.938313e+002,3.075417e+002
3.947955e+002,3.086531e+002
3.957597e+002,3.080943e+002
3.967240e+002,3.062635e+002
3.976882e+002,3.047648e+002
3.986524e+002,3.039252e+002
3.996167e+002,3.036378e+002
4.005809e+002,3.039246e+002
4.015451e+002,3.044139e+002
4.025094e+002,3.044916e+002
4.034736e+002,3.035553e+002
4.044378e+002,3.030547e+002
4.054021e+002,3.037172e+002
4.063663e+002,3.053203e+002
4.073305e+002,3.072829e+002
4.082948e+002,3.088276e+002
4.092590e+002,3.099207e+002
4.102232e+002,3.108223e+002
4.111875e+002,3.115633e+002
4.121517e+002,3.119232e+002
4.131159e+002,3.114588e+002
4.140802e+002,3.094492e+002
4.150444e+002,3.089141e+002
4.160086e+002,3.105183e+002
4.169729e+002,3.131877e+002
4.179371e+002,3.150662e+002
4.189013e+002,3.140443e+002
4.198656e+002,3.127581e+002
4.208298e+002,3.129729e+002
4.217940e+002,3.142635e+002
4.227583e+002,3.161388e+002
4.237225e+002,3.185383e+002
4.246867e+002,3.209638e+002
4.256510e+002,3.210520e+002
4.266152e+002,3.189167e+002
4.275794e+002,3.163318e+002
4.285437e+002,3.156930e+002
4.295079e+002,3.180119e+002
4.304721e+002,3.191537e+002
4.314364e+002,3.183989e+002
4.324006e+002,3.176129e+002
4.333648e+002,3.187400e+002
4.343291e+002,3.228055e+002
4.352933e+002,3.252037e+002
4.362575e+002,3.240072e+002
4.372218e+002,3.219814e+002
4.381860e+002,3.215454e+002
4.391502e+002,3.240864e+002
4.401145e+002,3.272777e+002
4.410787e+002,3.285438e+002
4.420429e+002,3.287734e+002
4.430072e+002,3.283111e+002
4.439714e+002,3.273015e+002
4.449356e+002,3.256473e+002
4.458999e+002,3.266592e+002
4.468641e+002,3.309205e+002
4.478283e+002,3.348290e+002
4.487926e+002,3.366308e+002
4.497568e+002,3.363625e+002
4.507210e+002,3.356186e+002
4.516853e+002,3.327419e+002
4.526495e+002,3.297930e+002
4.536137e+002,3.274187e+002
4.545780e+002,3.259407e+002
4.555422e+002,3.256905e+002
4.565064e+002,3.292329e+002
4.574707e+002,3.331873e+002
4.584349e+002,3.352071e+002
4.593991e+002,3.346910e+002
4.603634e+002,3.324966e+002
4.613276e+002,3.306376e+002
4.622918e+002,3.293457e+002
4.632561e+002,3.287151e+002
4.642203e+002,3.289750e+002
4.651845e+002,3.298347e+002
4.661488e+002,3.302029e+002
4.671130e+002,3.290734e+002
4.680772e+002,3.279172e+002
4.690415e+002,3.268533e+002
4.700057e+002,3.261407e+002
4.709699e+002,3.261305e+002
4.719342e+002,3.274228e+002
4.728984e+002,3.284534e+002
4.738626e+002,3.283191e+002
4.748269e+002,3.274176e+002
4.757911e+002,3.264860e+002
4.767553e+002,3.263353e+002
4.777196e+002,3.267899e+002
4.786838e+002,3.263904e+002
4.796480e+002,3.249641e+002
4.806123e+002,3.232109e+002
4.815765e+002,3.220843e+002
4.825407e+002,3.222441e+002
4.835050e+002,3.222850e+002
4.844692e+002,3.219048e+002
4.854334e+002,3.217523e+002
4.863977e+002,3.221807e+002
4.873619e+002,3.230486e+002
4.883261e+002,3.228580e+002
4.892904e+002,3.218601e+002
4.902546e+002,3.208690e+002
4.912188e+002,3.198772e+002
4.921831e+002,3.187667e+002
4.931473e+002,3.175765e+002
4.941115e+002,3.169883e+002
4.950758e+002,3.165981e+002
4.960400e+002,3.158723e+002
4.970042e+002,3.147383e+002
4.979685e+002,3.135011e+002
4.989327e+002,3.128739e+002
4.998969e+002,3.122041e+002
5.008612e+002,3.121394e+002
5.018254e+002,3.137246e+002
5.027896e+002,3.160472e+002
5.037539e+002,3.162000e+002
5.047181e+002,3.116650e+002
5.056823e+002,3.085213e+002
5.066466e+002,3.082809e+002
5.076108e+002,3.100601e+002
5.085750e+002,3.124407e+002
5.095393e+002,3.145580e+002
5.105035e+002,3.158116e+002
5.114677e+002,3.162743e+002
5.124320e+002,3.163543e+002
5.133962e+002,3.163170e+002
5.143605e+002,3.162375e+002
5.153247e+002,3.158441e+002
5.162889e+002,3.160900e+002
5.172532e+002,3.169986e+002
5.182174e+002,3.190204e+002
5.191816e+002,3.229690e+002
5.201459e+002,3.293602e+002
5.211101e+002,3.338715e+002
5.220743e+002,3.339347e+002
5.230386e+002,3.339369e+002
5.240028e+002,3.365618e+002
5.249670e+002,3.423439e+002
5.259313e+002,3.489221e+002
5.268955e+002,3.532076e+002
5.278597e+002,3.562257e+002
5.288240e+002,3.584327e+002
5.297882e+002,3.602918e+002
5.307524e+002,3.625020e+002
5.317167e+002,3.665352e+002
5.326809e+002,3.731871e+002
5.336451e+002,3.798566e+002
5.346094e+002,3.859971e+002
5.355736e+002,3.909694e+002
5.365378e+002,3.939846e+002
5.375021e+002,3.940124e+002
5.384663e+002,3.957462e+002
5.394305e+002,4.002337e+002
5.403948e+002,4.057265e+002
5.413590e+002,4.103178e+002
5.423232e+002,4.128069e+002
5.432875e+002,4.149834e+002
5.442517e+002,4.200321e+002
5.452159e+002,4.263190e+002
5.461802e+002,4.316809e+002
5.471444e+002,4.346352e+002
5.481086e+002,4.351964e+002
5.490729e+002,4.349108e+002
5.500371e+002,4.347039e+002
5.510013e+002,4.356105e+002
5.519656e+002,4.383921e+002
5.529298e+002,4.426972e+002
5.538940e+002,4.460023e+002
5.548583e+002,4.458259e+002
5.558225e+002,4.456327e+002
5.567867e+002,4.470244e+002
5.577510e+002,4.489842e+002
5.587152e+002,4.491649e+002
5.596794e+002,4.458390e+002
5.606437e+002,4.421134e+002
5.616079e+002,4.392450e+002
5.625721e+002,4.370495e+002
5.635364e+002,4.352859e+002
5.645006e+002,4.337647e+002
5.654648e+002,4.320794e+002
5.664291e+002,4.294093e+002
5.673933e+002,4.266245e+002
5.683575e+002,4.249185e+002
5.693218e+002,4.249492e+002
5.702860e+002,4.262896e+002
5.712502e+002,4.250777e+002
5.722145e+002,4.198585e+002
5.731787e+002,4.143475e+002
5.741429e+002,4.101696e+002
5.751072e+002,4.074928e+002
5.760714e+002,4.052092e+002
5.770356e+002,4.028759e+002
5.779999e+002,4.005311e+002
5.789641e+002,3.972210e+002
5.799283e+002,3.931815e+002
5.808926e+002,3.892855e+002
5.818568e+002,3.866453e+002
5.828210e+002,3.851206e+002
5.837853e+002,3.840045e+002
5.847495e+002,3.836357e+002
5.857137e+002,3.828104e+002
5.866780e+002,3.799936e+002
5.876422e+002,3.742762e+002
5.886064e+002,3.699614e+002
5.895707e+002,3.675137e+002
5.905349e+002,3.657437e+002
5.914991e+002,3.641734e+002
5.924634e+002,3.625453e+002
5.934276e+002,3.605163e+002
5.943918e+002,3.578961e+002
5.953560e+002,3.552671e+002
5.963203e+002,3.527585e+002
5.972845e+002,3.502373e+002
5.982487e+002,3.474132e+002
5.992130e+002,3.440457e+002
6.001772e+002,3.409004e+002
6.011414e+002,3.390651e+002
6.021057e+002,3.380330e+002
6.030699e+002,3.363985e+002
6.040341e+002,3.327348e+002
6.049984e+002,3.265835e+002
6.059626e+002,3.209976e+002
6.069268e+002,3.162360e+002
6.078911e+002,3.127484e+002
6.088553e+002,3.108359e+002
6.098195e+002,3.101030e+002
6.107838e+002,3.087898e+002
6.117480e+002,3.063730e+002
6.127122e+002,3.033753e+002
6.136765e+002,2.992536e+002
6.146407e+002,2.941023e+002
6.156049e+002,2.884883e+002
6.165692e+002,2.832981e+002
6.175334e+002,2.790426e+002
6.184976e+002,2.770419e+002
6.194619e+002,2.780268e+002
6.204261e+002,2.794947e+002
6.213903e+002,2.776613e+002
6.223546e+002,2.698776e+002
6.233188e+002,2.651852e+002
6.242830e+002,2.653268e+002
6.252473e+002,2.658760e+002
6.262115e+002,2.643399e+002
6.271757e+002,2.604577e+002
6.281400e+002,2.563331e+002
6.291042e+002,2.527668e+002
6.300684e+002,2.500940e+002
6.310327e+002,2.495495e+002
6.319969e+002,2.504996e+002
6.329611e+002,2.507101e+002
6.339254e+002,2.468037e+002
6.348896e+002,2.386673e+002
6.358538e+002,2.330804e+002
6.368181e+002,2.306703e+002
6.377823e+002,2.296817e+002
6.387465e+002,2.281171e+002
6.397108e+002,2.256418e+002
6.406750e+002,2.239397e+002
6.416392e+002,2.234969e+002
6.426035e+002,2.224866e+002
6.435677e+002,2.198376e+002
6.445319e+002,2.157366e+002
6.454962e+002,2.118466e+002
6.464604e+002,2.095313e+002
6.474246e+002,2.079342e+002
6.483889e+002,2.066051e+002
6.493531e+002,2.051690e+002
6.503173e+002,2.031714e+002
6.512816e+002,2.001614e+002
6.522458e+002,1.964007e+002
6.532100e+002,1.942747e+002
6.541743e+002,1.946106e+002
6.551385e+002,1.947842e+002
6.561027e+002,1.920275e+002
6.570670e+002,1.854570e+002
6.580312e+002,1.804557e+002
6.589954e+002,1.781727e+002
6.599597e+002,1.759707e+002
6.609239e+002,1.731700e+002
6.618881e+002,1.700919e+002
6.628524e+002,1.676788e+002
6.638166e+002,1.668854e+002
6.647808e+002,1.665096e+002
6.657451e+002,1.650531e+002
6.667093e+002,1.626875e+002
6.676735e+002,1.602762e+002
6.686378e+002,1.587371e+002
6.696020e+002,1.580145e+002
6.705662e+002,1.558954e+002
6.715305e+002,1.520294e+002
6.724947e+002,1.481405e+002
6.734589e+002,1.454055e+002
6.744232e+002,1.439204e+002
6.753874e+002,1.424385e+002
6.763516e+002,1.400767e+002
6.773159e+002,1.382085e+002
6.782801e+002,1.371604e+002
6.792443e+002,1.364759e+002
6.802086e+002,1.354906e+002
6.811728e+002,1.338113e+002
6.821370e+002,1.318071e+002
6.831013e+002,1.307051e+002
6.840655e+002,1.300829e+002
6.850297e+002,1.285634e+002
6.859940e+002,1.251948e+002
6.869582e+002,1.203757e+002
6.879224e+002,1.175341e+002
6.888867e+002,1.179110e+002
6.898509e+002,1.172788e+002
6.908151e+002,1.142608e+002
6.917794e+002,1.101504e+002
6.927436e+002,1.076024e+002
6.937078e+002,1.077145e+002
6.946721e+002,1.078943e+002
6.956363e+002,1.079246e+002
6.966005e+002,1.075172e+002
6.975648e+002,1.058834e+002
6.985290e+002,1.026391e+002
6.994932e+002,9.882008e+001
7.004575e+002,9.689555e+001
7.014217e+002,9.617445e+001
7.023859e+002,9.564348e+001
7.033502e+002,9.513258e+001
7.043144e+002,9.471378e+001
7.052786e+002,9.435621e+001
7.062429e+002,9.409983e+001
7.072071e+002,9.281726e+001
7.081713e+002,9.025021e+001
7.091356e+002,8.740234e+001
7.100998e+002,8.489577e+001
7.110640e+002,8.265183e+001
7.120283e+002,8.063550e+001
7.129925e+002,7.834695e+001
7.139567e+002,7.675316e+001
7.149210e+002,7.721345e+001
7.158852e+002,7.923141e+001
7.168494e+002,8.084184e+001
7.178137e+002,7.948798e+001
7.187779e+002,7.590604e+001
7.197421e+002,7.422466e+001
7.207064e+002,7.441058e+001
7.216706e+002,7.521864e+001
7.226348e+002,7.579551e+001
7.235991e+002,7.634863e+001
7.245633e+002,7.636433e+001
7.255275e+002,7.508273e+001
7.264918e+002,7.341513e+001
7.274560e+002,7.156218e+001
7.284202e+002,6.985254e+001
7.293845e+002,6.869434e+001
7.303487e+002,6.833187e+001
7.313129e+002,6.829013e+001
7.322772e+002,6.834483e+001
7.332414e+002,6.836827e+001
7.342056e+002,6.812231e+001
7.351699e+002,6.752893e+001
7.361341e+002,6.691773e+001
7.370983e+002,6.748006e+001
7.380626e+002,6.899978e+001
7.390268e+002,6.991745e+001
7.399910e+002,6.975803e+001
7.409553e+002,6.914292e+001
7.419195e+002,6.921195e+001
7.428837e+002,6.991850e+001
7.438480e+002,7.054723e+001
7.448122e+002,7.178990e+001
7.457764e+002,7.307103e+001
7.467407e+002,7.361894e+001
7.477049e+002,7.329753e+001
7.486691e+002,7.320757e+001
7.496334e+002,7.456937e+001
7.505976e+002,7.628342e+001
7.515618e+002,7.779459e+001
7.525261e+002,7.898941e+001
7.534903e+002,7.947890e+001
7.544545e+002,7.860226e+001
7.554188e+002,7.604335e+001
7.563830e+002,7.563477e+001
7.573472e+002,7.768976e+001
7.583115e+002,7.995617e+001
7.592757e+002,8.183629e+001
7.602399e+002,8.354465e+001
7.612042e+002,8.479885e+001
7.621684e+002,8.376869e+001
7.631326e+002,8.313147e+001
7.640969e+002,8.456811e+001
7.650611e+002,8.721818e+001
7.660253e+002,8.964632e+001
7.669896e+002,9.095234e+001
7.679538e+002,9.186510e+001
7.689180e+002,9.394608e+001
7.698823e+002,9.621639e+001
7.708465e+002,9.683949e+001
7.718107e+002,9.505157e+001
7.727750e+002,9.191203e+001
7.737392e+002,9.019386e+001
7.747034e+002,9.034308e+001
7.756677e+002,9.152970e+001
7.766319e+002,9.443269e+001
7.775961e+002,9.740167e+001
7.785604e+002,9.891862e+001
7.795246e+002,9.860884e+001
7.804888e+002,9.778210e+001
7.814531e+002,9.695260e+001
7.824173e+002,9.649310e+001
7.833815e+002,9.727555e+001
7.843458e+002,9.914326e+001
7.853100e+002,1.008966e+002
7.862742e+002,1.008685e+002
7.872385e+002,9.866467e+001
7.882027e+002,9.719613e+001
7.891669e+002,9.679504e+001
7.901312e+002,9.611691e+001
7.910954e+002,9.452233e+001
7.920596e+002,9.244881e+001
7.930239e+002,9.120916e+001
7.939881e+002,9.113558e+001
7.949523e+002,9.136626e+001
7.959166e+002,9.187801e+001
7.968808e+002,9.230486e+001
7.978450e+002,9.220161e+001
7.988093e+002,9.137045e+001
7.997735e+002,9.029688e+001
8.007377e+002,8.998214e+001
8.017020e+002,9.000865e+001
8.026662e+002,8.957655e+001
8.036304e+002,8.840280e+001
8.045947e+002,8.690477e+001
8.055589e+002,8.595387e+001
8.065231e+002,8.582864e+001
8.074874e+002,8.548650e+001
8.084516e+002,8.522767e+001
8.094158e+002,8.455190e+001
8.103801e+002,8.334501e+001
8.113443e+002,8.184515e+001
8.123085e+002,8.034981e+001
8.132728e+002,7.826456e+001
8.142370e+002,7.603410e+001
8.152012e+002,7.398516e+001
8.161655e+002,7.180518e+001
8.171297e+002,6.908901e+001
8.180939e+002,6.579350e+001
8.190582e+002,6.285472e+001
8.200224e+002,6.322766e+001
8.209866e+002,6.693195e+001
8.219509e+002,6.902022e+001
8.229151e+002,6.721761e+001
8.238793e+002,6.286630e+001
8.248436e+002,5.895005e+001
8.258078e+002,5.520152e+001
8.267720e+002,5.297295e+001
8.277363e+002,5.350671e+001
8.287005e+002,5.410510e+001
8.296647e+002,5.284357e+001
8.306290e+002,4.981312e+001
8.315932e+002,4.698238e+001
8.325574e+002,4.630550e+001
8.335217e+002,4.675050e+001
8.344859e+002,4.607838e+001
8.354501e+002,4.434169e+001
8.364144e+002,4.292647e+001
8.373786e+002,4.323500e+001
8.383428e+002,4.528304e+001
8.393071e+002,4.571193e+001
8.402713e+002,4.284565e+001
8.412355e+002,4.056300e+001
8.421998e+002,3.954803e+001
8.431640e+002,3.919458e+001
8.441282e+002,3.859002e+001
8.450925e+002,3.737413e+001
8.460567e+002,3.649522e+001
8.470209e+002,3.725528e+001
8.479852e+002,3.808205e+001
8.489494e+002,3.758492e+001
8.499136e+002,3.575837e+001
8.508779e+002,3.367712e+001
8.518421e+002,3.266508e+001
8.528063e+002,3.270236e+001
8.537706e+002,3.287527e+001
8.547348e+002,3.329639e+001
8.556990e+002,3.368499e+001
8.566633e+002,3.362827e+001
8.576275e+002,3.314193e+001
8.585917e+002,3.307850e+001
8.595560e+002,3.424169e+001
8.605202e+002,3.524918e+001
8.614844e+002,3.619936e+001
8.624487e+002,3.675416e+001
8.634129e+002,3.613255e+001
8.643771e+002,3.398227e+001
8.653414e+002,3.130109e+001
8.663056e+002,2.973265e+001
8.672698e+002,2.951229e+001
8.682341e+002,3.044775e+001
8.691983e+002,3.226218e+001
8.701625e+002,3.401778e+001
8.711268e+002,3.459100e+001
8.720910e+002,3.357883e+001
8.730552e+002,3.295765e+001
8.740195e+002,3.459122e+001
8.749837e+002,3.605928e+001
8.759479e+002,3.634691e+001
8.769122e+002,3.551088e+001
8.778764e+002,3.378277e+001
8.788406e+002,3.081698e+001
8.798049e+002,2.789056e+001
8.807691e+002,2.638979e+001
8.817333e+002,2.606072e+001
8.826976e+002,2.668856e+001
8.836618e+002,2.806084e+001
8.846260e+002,2.993044e+001
8.855903e+002,3.196922e+001
8.865545e+002,3.421107e+001
8.875187e+002,3.472482e+001
8.884830e+002,3.253900e+001
8.894472e+002,3.021932e+001
8.904114e+002,2.908403e+001
8.913757e+002,2.909162e+001
8.923399e+002,2.978360e+001
8.933041e+002,3.131683e+001
8.942684e+002,3.247627e+001
8.952326e+002,3.289047e+001
8.961968e+002,3.296246e+001
8.971611e+002,3.332758e+001
8.981253e+002,3.422110e+001
8.990895e+002,3.505443e+001
9.000538e+002,3.429327e+001
9.010180e+002,3.237148e+001
9.019822e+002,3.282938e+001
9.029465e+002,3.642760e+001
9.039107e+002,4.053107e+001
9.048749e+002,4.256819e+001
9.058392e+002,4.232071e+001
9.068034e+002,4.189940e+001
9.077676e+002,4.114233e+001
9.087319e+002,4.071052e+001
9.096961e+002,4.066573e+001
9.106603e+002,4.129123e+001
9.116246e+002,4.292161e+001
9.125888e+002,4.556529e+001
9.135530e+002,4.838470e+001
9.145173e+002,5.056122e+001
9.154815e+002,5.205146e+001
9.164457e+002,5.283534e+001
9.174100e+002,5.323293e+001
9.183742e+002,5.401601e+001
9.193384e+002,5.599033e+001
9.203027e+002,5.928867e+001
9.212669e+002,6.200095e+001
9.222311e+002,6.304765e+001
9.231954e+002,6.368351e+001
9.241596e+002,6.429295e+001
9.251238e+002,6.535368e+001
9.260881e+002,6.746342e+001
9.270523e+002,7.089829e+001
9.280165e+002,7.421701e+001
9.289808e+002,7.604190e+001
9.299450e+002,7.754453e+001
9.309092e+002,7.984078e+001
9.318735e+002,8.280825e+001
9.328377e+002,8.532076e+001
9.338019e+002,8.612104e+001
9.347662e+002,8.521362e+001
9.357304e+002,8.507024e+001
9.366946e+002,8.586009e+001
9.376589e+002,8.767344e+001
9.386231e+002,9.083762e+001
9.395873e+002,9.451772e+001
9.405516e+002,9.730384e+001
9.415158e+002,9.910675e+001
9.424800e+002,1.004929e+002
9.434443e+002,1.019562e+002
9.444085e+002,1.030659e+002
9.453727e+002,1.030740e+002
9.463370e+002,1.022466e+002
9.473012e+002,1.015584e+002
9.482654e+002,1.018092e+002
9.492297e+002,1.027233e+002
9.501939e+002,1.046023e+002
9.511581e+002,1.079884e+002
9.521224e+002,1.103173e+002
9.530866e+002,1.093655e+002
9.540508e+002,1.065913e+002
9.550151e+002,1.061208e+002
9.559793e+002,1.091372e+002
9.569435e+002,1.106462e+002
9.579078e+002,1.099306e+002
9.588720e+002,1.090142e+002
9.598362e+002,1.085680e+002
9.608005e+002,1.085769e+002
9.617647e+002,1.087604e+002
9.627289e+002,1.089091e+002
9.636932e+002,1.092407e+002
9.646574e+002,1.103722e+002
9.656216e+002,1.118832e+002
9.665859e+002,1.130811e+002
9.675501e+002,1.139216e+002
9.685143e+002,1.146574e+002
9.694786e+002,1.153586e+002
9.704428e+002,1.156029e+002
9.714070e+002,1.173506e+002
9.723713e+002,1.207182e+002
9.733355e+002,1.238934e+002
9.742997e+002,1.268792e+002
9.752640e+002,1.296534e+002
9.762282e+002,1.313913e+002
9.771924e+002,1.309261e+002
9.781567e+002,1.305800e+002
9.791209e+002,1.345232e+002
9.800851e+002,1.404269e+002
9.810494e+002,1.451247e+002
9.820136e+002,1.478891e+002
9.829778e+002,1.496987e+002
9.839421e+002,1.516611e+002
9.849063e+002,1.534569e+002
9.858705e+002,1.544047e+002
9.868348e+002,1.548792e+002
9.877990e+002,1.556975e+002
9.887632e+002,1.573074e+002
9.897275e+002,1.590569e+002
9.906917e+002,1.594348e+002
9.916559e+002,1.573539e+002
9.926202e+002,1.551904e+002
9.935844e+002,1.570513e+002
9.945486e+002,1.596738e+002
9.955129e+002,1.600404e+002
9.964771e+002,1.581993e+002
9.974413e+002,1.557471e+002
9.984056e+002,1.539856e+002
9.993698e+002,1.527033e+002
1.000334e+003,1.522694e+002
1.001298e+003,1.528604e+002
1.002263e+003,1.544031e+002
1.003227e+003,1.578866e+002
1.004191e+003,1.616331e+002
1.005155e+003,1.635029e+002
1.006119e+003,1.631423e+002
1.007084e+003,1.625344e+002
1.008048e+003,1.625053e+002
1.009012e+003,1.633973e+002
1.009976e+003,1.656083e+002
1.010941e+003,1.682762e+002
1.011905e+003,1.699303e+002
1.012869e+003,1.698495e+002
1.013833e+003,1.690492e+002
1.014798e+003,1.701865e+002
1.015762e+003,1.745731e+002
1.016726e+003,1.779957e+002
1.017690e+003,1.792970e+002
1.018654e+003,1.805384e+002
1.019619e+003,1.831511e+002
1.020583e+003,1.868113e+002
1.021547e+003,1.901308e+002
1.022511e+003,1.921889e+002
1.023476e+003,1.943901e+002
1.024440e+003,1.979552e+002
1.025404e+003,2.021908e+002
1.026368e+003,2.064128e+002
1.027333e+003,2.103416e+002
1.028297e+003,2.141037e+002
1.029261e+003,2.177348e+002
1.030225e+003,2.209384e+002
1.031190e+003,2.236360e+002
1.032154e+003,2.264642e+002
1.033118e+003,2.295467e+002
1.034082e+003,2.327224e+002
1.035047e+003,2.357863e+002
1.036011e+003,2.385186e+002
1.036975e+003,2.406991e+002
1.037939e+003,2.426339e+002
1.038903e+003,2.440164e+002
1.039868e+003,2.466876e+002
1.040832e+003,2.526885e+002
1.041796e+003,2.603140e+002
1.042760e+003,2.657025e+002
1.043725e+003,2.664457e+002
1.044689e+003,2.647110e+002
1.045653e+003,2.658613e+002
1.046617e+003,2.697877e+002
1.047582e+003,2.744500e+002
1.048546e+003,2.809802e+002
1.049510e+003,2.874518e+002
1.050474e+003,2.906580e+002
1.051438e+003,2.904131e+002
1.052403e+003,2.930035e+002
1.053367e+003,3.025897e+002
1.054331e+003,3.103015e+002
1.055295e+003,3.123215e+002
1.056260e+003,3.124221e+002
1.057224e+003,3.143265e+002
1.058188e+003,3.190063e+002
1.059152e+003,3.249119e+002
1.060117e+003,3.304204e+002
1.061081e+003,3.355645e+002
1.062045e+003,3.409730e+002
1.063009e+003,3.462841e+002
1.063974e+003,3.505739e+002
1.064938e+003,3.531801e+002
1.065902e+003,3.555491e+002
1.066866e+003,3.604381e+002
1.067830e+003,3.684378e+002
1.068795e+003,3.748866e+002
1.069759e+003,3.783931e+002
1.070723e+003,3.812264e+002
1.071687e+003,3.842622e+002
1.072652e+003,3.878347e+002
1.073616e+003,3.918767e+002
1.074580e+003,3.960260e+002
1.075544e+003,3.996956e+002
1.076509e+003,4.020642e+002
1.077473e+003,4.038095e+002
1.078437e+003,4.081113e+002
1.079401e+003,4.159364e+002
1.080365e+003,4.241491e+002
1.081330e+003,4.304264e+002
1.082294e+003,4.347709e+002
1.083258e+003,4.376287e+002
1.084222e+003,4.378004e+002
1.085187e+003,4.391025e+002
1.086151e+003,4.434913e+002
1.087115e+003,4.484078e+002
1.088079e+003,4.520883e+002
1.089043e+003,4.543434e+002
1.090008e+003,4.559514e+002
1.090972e+003,4.575641e+002
1.091936e+003,4.587001e+002
1.092900e+003,4.573941e+002
1.093865e+003,4.540223e+002
1.094829e+003,4.515927e+002
1.095793e+003,4.513267e+002
1.096757e+003,4.519209e+002
1.097722e+003,4.514983e+002
1.098686e+003,4.496574e+002
1.099650e+003,4.479851e+002
1.100614e+003,4.486879e+002
1.101578e+003,4.483012e+002
1.102543e+003,4.444776e+002
1.103507e+003,4.396227e+002
1.104471e+003,4.359665e+002
1.105435e+003,4.335534e+002
1.106400e+003,4.309235e+002
1.107364e+003,4.272896e+002
1.108328e+003,4.230667e+002
1.109292e+003,4.176875e+002
1.110257e+003,4.113342e+002
1.111221e+003,4.057866e+002
1.112185e+003,4.013123e+002
1.113149e+003,3.969449e+002
1.114114e+003,3.918001e+002
1.115078e+003,3.861240e+002
1.116042e+003,3.804920e+002
1.117006e+003,3.748343e+002
1.117970e+003,3.698018e+002
1.118935e+003,3.655462e+002
1.119899e+003,3.615075e+002
1.120863e+003,3.576997e+002
1.121827e+003,3.540786e+002
1.122792e+003,3.498150e+002
1.123756e+003,3.434525e+002
1.124720e+003,3.347953e+002
1.125684e+003,3.265829e+002
1.126649e+003,3.194496e+002
1.127613e+003,3.132392e+002
1.128577e+003,3.075855e+002
1.129541e+003,3.026845e+002
1.130505e+003,2.995097e+002
1.131470e+003,2.983770e+002
1.132434e+003,2.952496e+002
1.133398e+003,2.873141e+002
1.134362e+003,2.793179e+002
1.135327e+003,2.727764e+002
1.136291e+003,2.674040e+002
1.137255e+003,2.628696e+002
1.138219e+003,2.590205e+002
1.139184e+003,2.557473e+002
1.140148e+003,2.528384e+002
1.141112e+003,2.498920e+002
1.142076e+003,2.454568e+002
1.143041e+003,2.396914e+002
1.144005e+003,2.341664e+002
1.144969e+003,2.293552e+002
1.145933e+003,2.250593e+002
1.146897e+003,2.209707e+002
1.147862e+003,2.168472e+002
1.148826e+003,2.125869e+002
1.149790e+003,2.083433e+002
1.150754e+003,2.042670e+002
1.151719e+003,2.005817e+002
1.152683e+003,1.970999e+002
1.153647e+003,1.934302e+002
1.154611e+003,1.894883e+002
1.155576e+003,1.856013e+002
1.156540e+003,1.821674e+002
1.157504e+003,1.788536e+002
1.158468e+003,1.733231e+002
1.159432e+003,1.633642e+002
1.160397e+003,1.559200e+002
1.161361e+003,1.543621e+002
1.162325e+003,1.553324e+002
1.163289e+003,1.545413e+002
1.164254e+003,1.513351e+002
1.165218e+003,1.481638e+002
1.166182e+003,1.466275e+002
1.167146e+003,1.454877e+002
1.168111e+003,1.441247e+002
1.169075e+003,1.419749e+002
1.170039e+003,1.376190e+002
1.171003e+003,1.309054e+002
1.171968e+003,1.241851e+002
1.172932e+003,1.207796e+002
1.173896e+003,1.209408e+002
1.174860e+003,1.206169e+002
1.175824e+003,1.201613e+002
1.176789e+003,1.181127e+002
1.177753e+003,1.129239e+002
1.178717e+003,1.073710e+002
1.179681e+003,1.040103e+002
1.180646e+003,1.027550e+002
1.181610e+003,1.016037e+002
1.182574e+003,9.955050e+001
1.183538e+003,9.709378e+001
1.184503e+003,9.502719e+001
1.185467e+003,9.308976e+001
1.186431e+003,9.060246e+001
1.187395e+003,8.729649e+001
1.188359e+003,8.375433e+001
1.189324e+003,8.078069e+001
1.190288e+003,7.858600e+001
1.191252e+003,7.697626e+001
1.192216e+003,7.632275e+001
1.193181e+003,7.521350e+001
1.194145e+003,7.319696e+001
1.195109e+003,7.056500e+001
1.196073e+003,6.761713e+001
1.197038e+003,6.465545e+001
1.198002e+003,6.167126e+001
1.198966e+003,5.855559e+001
1.199930e+003,5.604820e+001
1.200895e+003,5.587608e+001
1.201859e+003,5.726871e+001
1.202823e+003,5.705373e+001
1.203787e+003,5.482870e+001
1.204751e+003,5.209168e+001
1.205716e+003,4.955946e+001
1.206680e+003,4.736767e+001
1.207644e+003,4.588322e+001
1.208608e+003,4.521549e+001
1.209573e+003,4.451888e+001
1.210537e+003,4.463234e+001
1.211501e+003,4.417828e+001
1.212465e+003,4.175451e+001
1.213430e+003,3.866959e+001
1.214394e+003,3.661636e+001
1.215358e+003,3.591450e+001
1.216322e+003,3.555950e+001
1.217286e+003,3.477348e+001
1.218251e+003,3.376247e+001
1.219215e+003,3.239697e+001
1.220179e+003,3.092357e+001
1.221143e+003,2.937008e+001
1.222108e+003,2.729334e+001
1.223072e+003,2.543468e+001
1.224036e+003,2.446133e+001
1.225000e+003,2.413136e+001
1.225965e+003,2.390044e+001
1.226929e+003,2.388229e+001
1.227893e+003,2.307324e+001
1.228857e+003,2.114975e+001
1.229822e+003,1.935468e+001
1.230786e+003,1.829497e+001
1.231750e+003,1.791720e+001
1.232714e+003,1.837811e+001
1.233678e+003,1.997073e+001
1.234643e+003,2.175311e+001
1.235607e+003,2.005881e+001
1.236571e+003,1.211079e+001
1.237535e+003,8.243683e+000
1.238500e+003,1.026136e+001
1.239464e+003,1.325357e+001
1.240428e+003,1.557813e+001
1.241392e+003,1.686697e+001
1.242357e+003,1.694568e+001
1.243321e+003,1.602077e+001
1.244285e+003,1.489404e+001
1.245249e+003,1.380342e+001
1.246214e+003,1.305772e+001
1.247178e+003,1.282263e+001
1.248142e+003,1.283834e+001
1.249106e+003,1.324748e+001
1.250070e+003,1.446638e+001
1.251035e+003,1.568600e+001
1.251999e+003,1.537615e+001
1.252963e+003,1.340925e+001
1.253927e+003,1.185281e+001
1.254892e+003,1.035167e+001
1.255856e+003,1.037678e+001
1.256820e+003,1.390683e+001
1.257784e+003,1.731859e+001
1.258749e+003,1.729480e+001
1.259713e+003,1.456148e+001
1.260677e+003,1.214188e+001
1.261641e+003,1.180791e+001
1.262605e+003,1.261249e+001
1.263570e+003,1.301295e+001
1.264534e+003,1.306796e+001
1.265498e+003,1.346976e+001
1.266462e+003,1.464812e+001
1.267427e+003,1.540575e+001
1.268391e+003,1.480122e+001
1.269355e+003,1.324178e+001
1.270319e+003,1.149465e+001
1.271284e+003,9.793427e+000
1.272248e+003,8.797768e+000
1.273212e+003,9.295090e+000
1.274176e+003,1.052819e+001
1.275141e+003,1.171069e+001
1.276105e+003,1.207227e+001
1.277069e+003,1.074988e+001
1.278033e+003,8.078804e+000
1.278997e+003,5.779556e+000
1.279962e+003,5.518509e+000
1.280926e+003,7.182144e+000
1.281890e+003,8.808121e+000
1.282854e+003,9.469254e+000
1.283819e+003,9.492996e+000
1.284783e+003,8.782181e+000
1.285747e+003,8.306107e+000
1.286711e+003,9.104446e+000
1.287676e+003,1.062110e+001
1.288640e+003,1.158045e+001
1.289604e+003,1.152789e+001
1.290568e+003,1.122112e+001
1.291532e+003,1.140874e+001
1.292497e+003,1.166771e+001
1.293461e+003,1.090054e+001
1.294425e+003,9.555817e+000
1.295389e+003,9.453812e+000
1.296354e+003,1.148463e+001
1.297318e+003,1.363538e+001
1.298282e+003,1.355456e+001
1.299246e+003,1.155363e+001
1.300211e+003,1.026010e+001
1.301175e+003,1.045210e+001
1.302139e+003,1.083875e+001
1.303103e+003,1.101110e+001
1.304068e+003,1.040879e+001
1.305032e+003,8.330528e+000
1.305996e+003,5.544861e+000
1.306960e+003,3.183952e+000
1.307924e+003,1.925507e+000
1.308889e+003,2.132645e+000
1.309853e+003,4.130791e+000
1.310817e+003,7.269325e+000
1.311781e+003,8.487869e+000
1.312746e+003,7.941040e+000
1.313710e+003,7.576027e+000
1.314674e+003,7.042801e+000
1.315638e+003,6.781914e+000
1.316603e+003,7.072174e+000
1.317567e+003,7.454659e+000
1.318531e+003,7.366135e+000
1.319495e+003,7.070877e+000
1.320459e+003,7.326103e+000
1.321424e+003,8.301178e+000
1.322388e+003,9.341248e+000
1.323352e+003,1.018466e+001
1.324316e+003,1.077699e+001
1.325281e+003,1.040422e+001
1.326245e+003,8.432381e+000
1.327209e+003,6.342941e+000
1.328173e+003,6.592537e+000
1.329138e+003,9.148727e+000
1.330102e+003,1.035499e+001
1.331066e+003,9.470192e+000
1.332030e+003,8.872437e+000
1.332995e+003,9.433990e+000
1.333959e+003,9.625725e+000
1.334923e+003,7.794640e+000
1.335887e+003,4.930222e+000
1.336851e+003,3.311775e+000
1.337816e+003,3.997772e+000
1.338780e+003,5.908745e+000
1.339744e+003,7.380020e+000
1.340708e+003,8.131081e+000
1.341673e+003,8.174370e+000
1.342637e+003,7.375198e+000
1.343601e+003,6.451698e+000
1.344565e+003,5.406006e+000
1.345530e+003,4.852615e+000
1.346494e+003,5.139740e+000
1.347458e+003,6.133720e+000
1.348422e+003,7.626411e+000
1.349386e+003,9.461082e+000
1.350351e+003,1.086137e+001
1.351315e+003,1.163335e+001
1.352279e+003,1.183191e+001
1.353243e+003,1.117744e+001
1.354208e+003,9.956696e+000
1.355172e+003,9.111855e+000
1.356136e+003,8.804916e+000
1.357100e+003,8.505310e+000
1.358065e+003,7.877815e+000
1.359029e+003,7.053612e+000
1.359993e+003,5.975731e+000
1.360957e+003,4.242836e+000
1.361922e+003,3.642616e+000
1.362886e+003,6.165398e+000
1.363850e+003,8.226555e+000
1.364814e+003,7.150879e+000
1.365778e+003,4.381653e+000
1.366743e+003,2.303230e+000
1.367707e+003,1.730049e+000
1.368671e+003,2.033340e+000
1.369635e+003,2.693069e+000
1.370600e+003,3.858719e+000
1.371564e+003,5.252831e+000
1.372528e+003,6.546646e+000
1.373492e+003,8.008438e+000
1.374457e+003,1.014192e+001
1.375421e+003,1.149574e+001
1.376385e+003,1.114857e+001
1.377349e+003,1.011707e+001
1.378313e+003,9.950195e+000
1.379278e+003,1.061005e+001
1.380242e+003,1.020800e+001
1.381206e+003,7.384262e+000
1.382170e+003,4.217079e+000
1.383135e+003,3.629494e+000
1.384099e+003,5.035484e+000
1.385063e+003,7.482681e+000
1.386027e+003,1.076508e+001
1.386992e+003,1.259589e+001
1.387956e+003,1.125987e+001
1.388920e+003,8.438637e+000
1.389884e+003,6.833885e+000
1.390849e+003,6.506363e+000
1.391813e+003,6.699402e+000
1.392777e+003,6.819138e+000
1.393741e+003,6.822601e+000
1.394705e+003,8.027115e+000
1.395670e+003,9.366089e+000
1.396634e+003,8.653610e+000
1.397598e+003,6.346100e+000
1.398562e+003,5.285469e+000
1.399527e+003,7.160515e+000
1.400491e+003,1.016165e+001
1.401455e+003,1.101167e+001
1.402419e+003,9.583794e+000
1.403384e+003,8.533234e+000
1.404348e+003,7.510872e+000
1.405312e+003,6.355278e+000
1.406276e+003,5.881432e+000
1.407240e+003,6.180786e+000
1.408205e+003,6.569069e+000
1.409169e+003,6.834305e+000
1.410133e+003,7.344345e+000
1.411097e+003,8.146568e+000
1.412062e+003,8.665825e+000
1.413026e+003,8.670563e+000
1.413990e+003,8.663940e+000
1.414954e+003,8.787506e+000
1.415919e+003,8.681465e+000
1.416883e+003,8.775787e+000
1.417847e+003,8.409004e+000
1.418811e+003,8.701996e+000
1.419776e+003,1.148322e+001
1.420740e+003,1.482211e+001
1.421704e+003,1.526971e+001
1.422668e+003,1.285311e+001
1.423632e+003,1.136644e+001
1.424597e+003,1.268757e+001
1.425561e+003,1.439793e+001
1.426525e+003,1.346027e+001
1.427489e+003,1.167898e+001
1.428454e+003,1.175768e+001
1.429418e+003,1.372449e+001
1.430382e+003,1.553750e+001
1.431346e+003,1.591912e+001
1.432311e+003,1.530878e+001
1.433275e+003,1.476840e+001
1.434239e+003,1.478636e+001
1.435203e+003,1.541084e+001
1.436167e+003,1.665114e+001
1.437132e+003,1.700187e+001
1.438096e+003,1.478155e+001
1.439060e+003,1.242396e+001
1.440024e+003,1.173537e+001
1.440989e+003,1.245567e+001
1.441953e+003,1.376385e+001
1.442917e+003,1.503381e+001
1.443881e+003,1.571150e+001
1.444846e+003,1.550906e+001
1.445810e+003,1.492509e+001
1.446774e+003,1.492241e+001
1.447738e+003,1.548114e+001
1.448703e+003,1.546564e+001
1.449667e+003,1.460719e+001
1.450631e+003,1.380184e+001
1.451595e+003,1.388040e+001
1.452559e+003,1.400357e+001
1.453524e+003,1.239732e+001
1.454488e+003,9.946518e+000
1.455452e+003,9.779228e+000
1.456416e+003,1.316991e+001
1.457381e+003,1.739008e+001
1.458345e+003,1.920623e+001
1.459309e+003,1.876666e+001
1.460273e+003,1.762268e+001
1.461238e+003,1.596228e+001
1.462202e+003,1.506561e+001
1.463166e+003,1.501642e+001
1.464130e+003,1.565955e+001
1.465094e+003,1.720263e+001
1.466059e+003,1.854723e+001
1.467023e+003,1.799596e+001
1.467987e+003,1.578947e+001
1.468951e+003,1.462504e+001
1.469916e+003,1.635172e+001
1.470880e+003,1.912814e+001
1.471844e+003,1.973629e+001
1.472808e+003,1.840706e+001
1.473773e+003,1.736201e+001
1.474737e+003,1.710785e+001
1.475701e+003,1.700628e+001
1.476665e+003,1.694425e+001
1.477630e+003,1.696988e+001
1.478594e+003,1.661726e+001
1.479558e+003,1.580689e+001
1.480522e+003,1.569378e+001
1.481486e+003,1.689695e+001
1.482451e+003,1.789352e+001
1.483415e+003,1.775154e+001
1.484379e+003,1.725940e+001
1.485343e+003,1.703965e+001
1.486308e+003,1.707266e+001
1.487272e+003,1.719752e+001
1.488236e+003,1.731030e+001
1.489200e+003,1.716855e+001
1.490165e+003,1.620430e+001
1.491129e+003,1.530096e+001
1.492093e+003,1.743723e+001
1.493057e+003,2.323237e+001
1.494021e+003,2.631780e+001
1.494986e+003,2.520334e+001
1.495950e+003,2.344184e+001
1.496914e+003,2.035166e+001
1.497878e+003,1.819234e+001
1.498843e+003,1.919256e+001
1.499807e+003,2.221371e+001
1.500771e+003,2.544983e+001
1.501735e+003,2.806754e+001
1.502700e+003,2.961628e+001
1.503664e+003,2.958616e+001
1.504628e+003,2.828487e+001
1.505592e+003,2.693339e+001
1.506557e+003,2.554195e+001
1.507521e+003,2.540885e+001
1.508485e+003,2.739997e+001
1.509449e+003,2.901090e+001
1.510413e+003,2.950611e+001
1.511378e+003,2.953616e+001
1.512342e+003,2.999475e+001
1.513306e+003,3.058370e+001
1.514270e+003,3.008776e+001
1.515235e+003,2.827814e+001
1.516199e+003,2.670701e+001
1.517163e+003,2.699963e+001
1.518127e+003,2.870144e+001
1.519092e+003,3.004832e+001
1.520056e+003,3.101105e+001
1.521020e+003,3.086758e+001
1.521984e+003,2.866283e+001
1.522948e+003,2.676654e+001
1.523913e+003,2.642391e+001
1.524877e+003,2.659745e+001
1.525841e+003,2.630090e+001
1.526805e+003,2.541303e+001
1.527770e+003,2.381198e+001
1.528734e+003,2.139537e+001
1.529698e+003,1.901281e+001
1.530662e+003,1.767177e+001
1.531627e+003,1.734994e+001
1.532591e+003,1.772776e+001
1.533555e+003,1.898369e+001
1.534519e+003,1.903455e+001
1.535484e+003,1.667176e+001
1.536448e+003,1.506820e+001
1.537412e+003,1.586441e+001
1.538376e+003,1.719657e+001
1.539340e+003,1.747075e+001
1.540305e+003,1.687811e+001
1.541269e+003,1.574829e+001
1.542233e+003,1.399140e+001
1.543197e+003,1.256574e+001
1.544162e+003,1.252370e+001
1.545126e+003,1.301167e+001
1.546090e+003,1.231783e+001
1.547054e+003,1.137942e+001
1.548019e+003,1.237497e+001
1.548983e+003,1.555234e+001
1.549947e+003,1.756204e+001
1.550911e+003,1.649295e+001
1.551875e+003,1.417032e+001
1.552840e+003,1.248508e+001
1.553804e+003,1.184604e+001
1.554768e+003,1.258994e+001
1.555732e+003,1.454336e+001
1.556697e+003,1.582107e+001
1.557661e+003,1.538112e+001
1.558625e+003,1.403876e+001
1.559589e+003,1.223743e+001
1.560554e+003,1.048657e+001
1.561518e+003,1.034588e+001
1.562482e+003,1.207146e+001
1.563446e+003,1.365939e+001
1.564411e+003,1.429495e+001
1.565375e+003,1.441823e+001
1.566339e+003,1.437110e+001
1.567303e+003,1.406426e+001
1.568267e+003,1.305132e+001
1.569232e+003,1.109433e+001
1.570196e+003,1.041824e+001
1.571160e+003,1.292249e+001
1.572124e+003,1.553252e+001
1.573089e+003,1.459318e+001
1.574053e+003,1.242471e+001
1.575017e+003,1.263770e+001
1.575981e+003,1.521410e+001
1.576946e+003,1.726841e+001
1.577910e+003,1.719832e+001
1.578874e+003,1.607715e+001
1.579838e+003,1.555436e+001
1.580802e+003,1.575472e+001
1.581767e+003,1.552044e+001
1.582731e+003,1.429038e+001
1.583695e+003,1.343544e+001
1.584659e+003,1.374163e+001
1.585624e+003,1.388705e+001
1.586588e+003,1.289069e+001
1.587552e+003,1.206266e+001
1.588516e+003,1.269026e+001
1.589481e+003,1.432310e+001
1.590445e+003,1.543972e+001
1.591409e+003,1.539861e+001
1.592373e+003,1.444919e+001
1.593338e+003,1.230292e+001
1.594302e+003,9.944183e+000
1.595266e+003,1.010767e+001
1.596230e+003,1.280154e+001
1.597194e+003,1.395563e+001
1.598159e+003,1.200424e+001
1.599123e+003,9.901794e+000
1.600087e+003,9.223228e+000
1.601051e+003,9.375114e+000
1.602016e+003,9.860672e+000
1.602980e+003,1.049254e+001
1.603944e+003,1.156489e+001
1.604908e+003,1.331442e+001
1.605873e+003,1.448553e+001
1.606837e+003,1.386086e+001
1.607801e+003,1.259153e+001
1.608765e+003,1.215753e+001
1.609729e+003,1.219723e+001
1.610694e+003,1.286418e+001
1.611658e+003,1.475043e+001
1.612622e+003,1.570895e+001
1.613586e+003,1.450150e+001
1.614551e+003,1.340112e+001
1.615515e+003,1.354743e+001
1.616479e+003,1.424222e+001
1.617443e+003,1.541216e+001
1.618408e+003,1.676764e+001
1.619372e+003,1.663783e+001
1.620336e+003,1.406461e+001
1.621300e+003,1.173869e+001
1.622265e+003,1.295794e+001
1.623229e+003,1.639668e+001
1.624193e+003,1.808479e+001
1.625157e+003,1.784799e+001
1.626121e+003,1.735172e+001
1.627086e+003,1.703435e+001
1.628050e+003,1.660278e+001
1.629014e+003,1.506702e+001
1.629978e+003,1.369965e+001
1.630943e+003,1.448952e+001
1.631907e+003,1.647090e+001
1.632871e+003,1.720584e+001
1.633835e+003,1.631638e+001
1.634800e+003,1.509678e+001
1.635764e+003,1.407304e+001
1.636728e+003,1.362534e+001
1.637692e+003,1.438755e+001
1.638656e+003,1.576738e+001
1.639621e+003,1.599199e+001
1.640585e+003,1.474113e+001
1.641549e+003,1.353941e+001
1.642513e+003,1.326335e+001
1.643478e+003,1.398466e+001
1.644442e+003,1.595908e+001
1.645406e+003,1.815336e+001
1.646370e+003,1.931082e+001
1.647335e+003,1.935342e+001
1.648299e+003,1.885482e+001
1.649263e+003,1.789107e+001
1.650227e+003,1.724500e+001
1.651192e+003,1.794538e+001
1.652156e+003,1.924572e+001
1.653120e+003,1.958714e+001
1.654084e+003,1.916087e+001
1.655048e+003,1.951205e+001
1.656013e+003,2.110146e+001
1.656977e+003,2.220618e+001
1.657941e+003,2.137292e+001
1.658905e+003,1.971709e+001
1.659870e+003,1.921286e+001
1.660834e+003,1.958162e+001
1.661798e+003,1.929968e+001
1.662762e+003,1.797862e+001
1.663727e+003,1.742863e+001
1.664691e+003,1.920760e+001
1.665655e+003,2.092761e+001
1.666619e+003,2.029636e+001
1.667583e+003,1.852883e+001
1.668548e+003,1.757722e+001
1.669512e+003,1.735429e+001
1.670476e+003,1.733273e+001
1.671440e+003,1.766523e+001
1.672405e+003,1.848497e+001
1.673369e+003,1.978292e+001
1.674333e+003,2.106659e+001
1.675297e+003,2.169059e+001
1.676262e+003,2.162873e+001
1.677226e+003,2.050932e+001
1.678190e+003,1.765249e+001
1.679154e+003,1.586462e+001
1.680119e+003,1.681137e+001
1.681083e+003,1.843341e+001
1.682047e+003,1.933414e+001
1.683011e+003,1.982148e+001
1.683975e+003,2.066611e+001
1.684940e+003,2.191999e+001
1.685904e+003,2.254771e+001
1.686868e+003,2.198762e+001
1.687832e+003,2.159818e+001
1.688797e+003,2.264038e+001
1.689761e+003,2.432828e+001
1.690725e+003,2.545885e+001
1.691689e+003,2.629598e+001
1.692654e+003,2.622002e+001
1.693618e+003,2.447401e+001
1.694582e+003,2.379166e+001
1.695546e+003,2.483313e+001
1.696510e+003,2.597195e+001
1.697475e+003,2.670573e+001
1.698439e+003,2.712103e+001
1.699403e+003,2.700741e+001
1.700367e+003,2.657475e+001
1.701332e+003,2.645802e+001
1.702296e+003,2.694381e+001
1.703260e+003,2.817174e+001
1.704224e+003,3.037988e+001
1.705189e+003,3.288832e+001
1.706153e+003,3.364444e+001
1.707117e+003,3.192900e+001
1.708081e+003,3.037574e+001
1.709046e+003,3.010896e+001
1.710010e+003,3.066568e+001
1.710974e+003,3.123679e+001
1.711938e+003,3.195086e+001
1.712902e+003,3.345210e+001
1.713867e+003,3.466548e+001
1.714831e+003,3.445296e+001
1.715795e+003,3.321812e+001
1.716759e+003,3.182243e+001
1.717724e+003,3.065240e+001
1.718688e+003,3.040570e+001
1.719652e+003,3.204975e+001
1.720616e+003,3.492598e+001
1.721581e+003,3.713210e+001
1.722545e+003,3.893392e+001
1.723509e+003,3.928067e+001
1.724473e+003,3.705551e+001
1.725438e+003,3.568223e+001
1.726402e+003,3.646256e+001
1.727366e+003,3.733787e+001
1.728330e+003,3.768430e+001
1.729294e+003,3.749815e+001
1.730259e+003,3.637028e+001
1.731223e+003,3.468596e+001
1.732187e+003,3.375475e+001
1.733151e+003,3.399973e+001
1.734116e+003,3.468455e+001
1.735080e+003,3.576712e+001
1.736044e+003,3.695493e+001
1.737008e+003,3.652529e+001
1.737973e+003,3.447256e+001
1.738937e+003,3.347742e+001
1.739901e+003,3.411213e+001
1.740865e+003,3.451093e+001
1.741829e+003,3.367504e+001
1.742794e+003,3.304288e+001
1.743758e+003,3.439426e+001
1.744722e+003,3.654458e+001
1.745686e+003,3.759743e+001
1.746651e+003,3.754803e+001
1.747615e+003,3.738628e+001
1.748579e+003,3.736509e+001
1.749543e+003,3.677322e+001
1.750508e+003,3.428730e+001
1.751472e+003,3.220911e+001
1.752436e+003,3.385538e+001
1.753400e+003,3.724990e+001
1.754365e+003,3.767488e+001
1.755329e+003,3.494897e+001
1.756293e+003,3.283262e+001
1.757257e+003,3.300307e+001
1.758221e+003,3.379712e+001
1.759186e+003,3.369151e+001
1.760150e+003,3.324160e+001
1.761114e+003,3.319653e+001
1.762078e+003,3.302378e+001
1.763043e+003,3.301619e+001
1.764007e+003,3.337664e+001
1.764971e+003,3.323556e+001
1.765935e+003,3.322578e+001
1.766900e+003,3.320737e+001
1.767864e+003,3.236031e+001
1.768828e+003,3.151933e+001
1.769792e+003,3.219381e+001
1.770756e+003,3.378893e+001
1.771721e+003,3.393142e+001
1.772685e+003,3.184948e+001
1.773649e+003,2.978976e+001
1.774613e+003,3.001189e+001
1.775578e+003,3.167923e+001
1.776542e+003,3.231921e+001
1.777506e+003,3.181429e+001
1.778470e+003,3.168224e+001
1.779435e+003,3.191951e+001
1.780399e+003,3.193748e+001
1.781363e+003,3.234888e+001
1.782327e+003,3.243076e+001
1.783292e+003,3.112848e+001
1.784256e+003,2.917892e+001
1.785220e+003,2.698845e+001
1.786184e+003,2.542237e+001
1.787148e+003,2.584903e+001
1.788113e+003,2.802795e+001
1.789077e+003,2.972346e+001
1.790041e+003,2.972415e+001
1.791005e+003,2.875780e+001
1.791970e+003,2.735712e+001
1.792934e+003,2.616201e+001
1.793898e+003,2.631297e+001
1.794862e+003,2.753760e+001
1.795827e+003,2.838295e+001
1.796791e+003,2.847495e+001
1.797755e+003,2.830870e+001
1.798719e+003,2.818604e+001
1.799683e+003,2.818312e+001
1.800648e+003,2.828732e+001
1.801612e+003,2.823771e+001
1.802576e+003,2.751897e+001
1.803540e+003,2.599066e+001
1.804505e+003,2.531496e+001
1.805469e+003,2.695449e+001
1.806433e+003,2.887967e+001
1.807397e+003,3.018510e+001
1.808362e+003,3.101701e+001
1.809326e+003,3.198144e+001
1.810290e+003,3.237152e+001
1.811254e+003,3.044153e+001
1.812219e+003,2.720173e+001
1.813183e+003,2.581226e+001
1.814147e+003,2.697224e+001
1.815111e+003,2.816261e+001
1.816075e+003,2.767886e+001
1.817040e+003,2.676601e+001
1.818004e+003,2.713259e+001
1.818968e+003,2.870058e+001
1.819932e+003,3.014278e+001
1.820897e+003,3.085416e+001
1.821861e+003,3.067690e+001
1.822825e+003,2.979348e+001
1.823789e+003,2.827998e+001
1.824754e+003,2.544362e+001
1.825718e+003,2.384913e+001
1.826682e+003,2.551850e+001
1.827646e+003,2.856647e+001
1.828610e+003,3.082909e+001
1.829575e+003,3.195158e+001
1.830539e+003,3.117582e+001
1.831503e+003,2.762375e+001
1.832467e+003,2.485403e+001
1.833432e+003,2.667689e+001
1.834396e+003,2.994849e+001
1.835360e+003,3.080346e+001
1.836324e+003,3.003069e+001
1.837289e+003,2.829172e+001
1.838253e+003,2.552467e+001
1.839217e+003,2.383960e+001
1.840181e+003,2.428844e+001
1.841146e+003,2.543674e+001
1.842110e+003,2.633620e+001
1.843074e+003,2.720300e+001
1.844038e+003,2.800389e+001
1.845002e+003,2.862540e+001
1.845967e+003,2.902699e+001
1.846931e+003,2.925891e+001
1.847895e+003,2.943546e+001
1.848859e+003,2.832979e+001
1.849824e+003,2.742687e+001
1.850788e+003,2.875901e+001
1.851752e+003,2.984657e+001
1.852716e+003,2.801397e+001
1.853681e+003,2.559438e+001
1.854645e+003,2.612946e+001
1.855609e+003,2.922483e+001
1.856573e+003,3.162843e+001
1.857537e+003,3.173564e+001
1.858502e+003,3.106985e+001
1.859466e+003,3.182128e+001
1.860430e+003,3.333499e+001
1.861394e+003,3.273846e+001
1.862359e+003,3.021170e+001
1.863323e+003,2.921228e+001
1.864287e+003,2.994601e+001
1.865251e+003,3.022516e+001
1.866216e+003,2.983389e+001
1.867180e+003,2.936658e+001
1.868144e+003,2.833901e+001
1.869108e+003,2.736877e+001
1.870073e+003,2.827821e+001
1.871037e+003,3.060802e+001
1.872001e+003,3.135511e+001
1.872965e+003,3.046830e+001
1.873929e+003,2.945196e+001
1.874894e+003,2.680544e+001
1.875858e+003,2.549949e+001
1.876822e+003,2.797791e+001
1.877786e+003,3.114797e+001
1.878751e+003,3.319682e+001
1.879715e+003,3.427454e+001
1.880679e+003,3.437502e+001
1.881643e+003,3.375175e+001
1.882608e+003,3.309741e+001
1.883572e+003,3.267744e+001
1.884536e+003,3.218283e+001
1.885500e+003,3.126610e+001
1.886464e+003,3.003711e+001
1.887429e+003,2.890633e+001
1.888393e+003,2.831619e+001
1.889357e+003,2.915263e+001
1.890321e+003,3.135382e+001
1.891286e+003,3.251375e+001
1.892250e+003,3.198299e+001
1.893214e+003,3.083273e+001
1.894178e+003,2.962065e+001
1.895143e+003,2.886407e+001
1.896107e+003,2.838000e+001
1.897071e+003,2.835352e+001
1.898035e+003,2.965585e+001
1.899000e+003,3.157461e+001
1.899964e+003,3.214156e+001
1.900928e+003,3.207950e+001
1.901892e+003,3.235283e+001
1.902856e+003,3.269164e+001
1.903821e+003,3.259215e+001
1.904785e+003,3.072227e+001
1.905749e+003,2.875140e+001
1.906713e+003,2.964593e+001
1.907678e+003,3.208720e+001
1.908642e+003,3.249663e+001
1.909606e+003,3.069921e+001
1.910570e+003,2.962505e+001
1.911535e+003,3.071031e+001
1.912499e+003,3.245086e+001
1.913463e+003,3.317149e+001
1.914427e+003,3.254704e+001
1.915391e+003,3.010220e+001
1.916356e+003,2.674113e+001
1.917320e+003,2.686453e+001
1.918284e+003,3.094527e+001
1.919248e+003,3.362489e+001
1.920213e+003,3.291151e+001
1.921177e+003,3.141956e+001
1.922141e+003,3.046318e+001
1.923105e+003,3.030362e+001
1.924070e+003,3.187198e+001
1.925034e+003,3.397115e+001
1.925998e+003,3.273132e+001
1.926962e+003,2.802904e+001
1.927927e+003,2.536064e+001
1.928891e+003,2.608389e+001
1.929855e+003,2.716309e+001
1.930819e+003,2.869762e+001
1.931783e+003,2.933495e+001
1.932748e+003,2.831522e+001
1.933712e+003,2.670484e+001
1.934676e+003,2.454797e+001
1.935640e+003,2.278159e+001
1.936605e+003,2.313826e+001
1.937569e+003,2.517388e+001
1.938533e+003,2.689000e+001
1.939497e+003,2.775515e+001
1.940462e+003,2.782647e+001
1.941426e+003,2.603116e+001
1.942390e+003,2.363545e+001
1.943354e+003,2.350768e+001
1.944318e+003,2.457369e+001
1.945283e+003,2.411584e+001
1.946247e+003,2.272868e+001
1.947211e+003,2.230134e+001
1.948175e+003,2.324058e+001
1.949140e+003,2.478773e+001
1.950104e+003,2.615997e+001
1.951068e+003,2.735958e+001
1.952032e+003,2.901848e+001
1.952997e+003,3.071162e+001
1.953961e+003,3.050738e+001
1.954925e+003,2.808749e+001
1.955889e+003,2.684099e+001
1.956854e+003,2.795663e+001
1.957818e+003,2.828813e+001
1.958782e+003,2.714112e+001
1.959746e+003,2.642184e+001
1.960710e+003,2.619642e+001
1.961675e+003,2.579697e+001
1.962639e+003,2.504278e+001
1.963603e+003,2.447102e+001
1.964567e+003,2.496953e+001
1.965532e+003,2.610931e+001
1.966496e+003,2.589571e+001
1.967460e+003,2.360142e+001
1.968424e+003,2.200190e+001
1.969389e+003,2.343160e+001
1.970353e+003,2.523228e+001
1.971317e+003,2.561132e+001
1.972281e+003,2.495614e+001
1.973245e+003,2.308371e+001
1.974210e+003,2.097307e+001
1.975174e+003,2.029791e+001
1.976138e+003,2.115469e+001
1.977102e+003,2.297964e+001
1.978067e+003,2.527690e+001
1.979031e+003,2.707587e+001
1.979995e+003,2.770149e+001
1.980959e+003,2.724081e+001
1.981924e+003,2.547531e+001
1.982888e+003,2.302544e+001
1.983852e+003,2.330878e+001
1.984816e+003,2.633514e+001
1.985781e+003,2.697419e+001
1.986745e+003,2.458877e+001
1.987709e+003,2.266696e+001
1.988673e+003,2.185995e+001
1.989637e+003,2.183530e+001
1.990602e+003,2.276739e+001
1.991566e+003,2.367364e+001
1.992530e+003,2.318353e+001
1.993494e+003,2.214678e+001
1.994459e+003,2.352191e+001
1.995423e+003,2.846313e+001
1.996387e+003,2.979584e+001
1.997351e+003,2.297570e+001
1.998316e+003,1.878828e+001
1.999280e+003,2.184570e+001
2.000244e+003,2.559167e+001
2.001208e+003,2.655163e+001
2.002172e+003,2.661060e+001
2.003137e+003,2.754913e+001
2.004101e+003,2.881316e+001
2.005065e+003,2.962157e+001
2.006029e+003,2.986467e+001
2.006994e+003,2.891434e+001
2.007958e+003,2.591567e+001
2.008922e+003,2.349575e+001
2.009886e+003,2.520461e+001
2.010851e+003,2.768536e+001
2.011815e+003,2.673577e+001
2.012779e+003,2.420562e+001
2.013743e+003,2.267326e+001
2.014708e+003,2.221139e+001
2.015672e+003,2.266853e+001
2.016636e+003,2.390766e+001
2.017600e+003,2.549590e+001
2.018564e+003,2.698331e+001
2.019529e+003,2.731496e+001
2.020493e+003,2.564216e+001
2.021457e+003,2.338000e+001
2.022421e+003,2.270200e+001
2.023386e+003,2.319666e+001
2.024350e+003,2.397418e+001
2.025314e+003,2.507896e+001
2.026278e+003,2.569032e+001
2.027243e+003,2.578034e+001
2.028207e+003,2.581456e+001
2.029171e+003,2.564681e+001
2.030135e+003,2.651891e+001
2.031099e+003,2.993987e+001
2.032064e+003,3.314265e+001
2.033028e+003,3.153539e+001
2.033992e+003,2.603298e+001
2.034956e+003,2.368287e+001
2.035921e+003,2.640391e+001
2.036885e+003,2.791370e+001
2.037849e+003,2.670548e+001
2.038813e+003,2.729385e+001
2.039778e+003,3.143768e+001
2.040742e+003,3.309737e+001
2.041706e+003,2.890727e+001
2.042670e+003,2.419247e+001
2.043635e+003,2.285418e+001
2.044599e+003,2.368002e+001
2.045563e+003,2.495305e+001
2.046527e+003,2.647720e+001
2.047491e+003,2.757585e+001
2.048456e+003,2.832453e+001
2.049420e+003,2.849406e+001
2.050384e+003,2.627760e+001
2.051348e+003,2.448190e+001
2.052313e+003,2.546172e+001
2.053277e+003,2.707417e+001
2.054241e+003,2.778030e+001
2.055205e+003,2.817870e+001
2.056170e+003,2.850867e+001
2.057134e+003,2.860110e+001
2.058098e+003,2.924584e+001
2.059062e+003,3.064379e+001
2.060027e+003,3.068532e+001
2.060991e+003,2.782377e+001
2.061955e+003,2.479765e+001
2.062919e+003,2.401093e+001
2.063884e+003,2.424550e+001
2.064848e+003,2.460794e+001
2.065812e+003,2.537412e+001
2.066776e+003,2.642437e+001
2.067740e+003,2.735664e+001
2.068705e+003,2.826270e+001
2.069669e+003,2.895394e+001
2.070633e+003,2.792178e+001
2.071597e+003,2.461833e+001
2.072562e+003,2.146983e+001
2.073526e+003,2.101403e+001
2.074490e+003,2.214655e+001
2.075454e+003,2.185480e+001
2.076418e+003,2.040809e+001
2.077383e+003,2.050752e+001
2.078347e+003,2.153677e+001
2.079311e+003,2.134358e+001
2.080275e+003,2.066915e+001
2.081240e+003,2.075052e+001
2.082204e+003,2.130965e+001
2.083168e+003,2.300893e+001
2.084132e+003,2.647183e+001
2.085096e+003,2.876547e+001
2.086061e+003,2.663045e+001
2.087025e+003,2.217635e+001
2.087989e+003,2.080355e+001
2.088953e+003,2.259943e+001
2.089918e+003,2.300636e+001
2.090882e+003,2.160554e+001
2.091846e+003,2.041450e+001
2.092810e+003,1.958318e+001
2.093775e+003,1.929210e+001
2.094739e+003,1.965385e+001
2.095703e+003,1.989150e+001
2.096667e+003,1.936604e+001
2.097632e+003,1.873079e+001
2.098596e+003,1.916840e+001
2.099560e+003,2.067937e+001
2.100524e+003,2.189756e+001
2.101489e+003,2.231094e+001
2.102453e+003,2.197066e+001
2.103417e+003,2.080431e+001
2.104381e+003,1.968077e+001
2.105345e+003,1.888694e+001
2.106310e+003,1.805598e+001
2.107274e+003,1.651611e+001
2.108238e+003,1.558244e+001
2.109202e+003,1.615732e+001
2.110167e+003,1.750183e+001
2.111131e+003,1.882323e+001
2.112095e+003,1.974942e+001
2.113059e+003,2.011951e+001
2.114023e+003,2.074980e+001
2.114988e+003,2.165152e+001
2.115952e+003,2.097913e+001
2.116916e+003,2.077653e+001
2.117880e+003,2.331776e+001
2.118845e+003,2.486230e+001
2.119809e+003,2.345266e+001
2.120773e+003,2.164014e+001
2.121737e+003,2.097648e+001
2.122702e+003,2.062776e+001
2.123666e+003,1.882938e+001
2.124630e+003,1.612587e+001
2.125594e+003,1.612639e+001
2.126559e+003,2.005561e+001
2.127523e+003,2.192973e+001
2.128487e+003,1.779622e+001
2.129451e+003,1.388304e+001
2.130416e+003,1.258582e+001
2.131380e+003,1.302134e+001
2.132344e+003,1.620899e+001
2.133308e+003,1.953414e+001
2.134272e+003,1.923656e+001
2.135237e+003,1.680593e+001
2.136201e+003,1.625645e+001
2.137165e+003,1.782275e+001
2.138129e+003,1.845987e+001
2.139094e+003,1.719262e+001
2.140058e+003,1.645441e+001
2.141022e+003,1.763651e+001
2.141986e+003,1.888238e+001
2.142950e+003,1.944295e+001
2.143915e+003,1.913241e+001
2.144879e+003,1.639165e+001
2.145843e+003,1.317390e+001
2.146807e+003,1.331589e+001
2.147772e+003,1.585264e+001
2.148736e+003,1.690661e+001
2.149700e+003,1.575612e+001
2.150664e+003,1.472426e+001
2.151629e+003,1.491830e+001
2.152593e+003,1.522393e+001
2.153557e+003,1.481959e+001
2.154521e+003,1.483631e+001
2.155486e+003,1.699361e+001
2.156450e+003,1.915006e+001
2.157414e+003,1.797404e+001
2.158378e+003,1.514397e+001
2.159343e+003,1.339081e+001
2.160307e+003,1.311531e+001
2.161271e+003,1.482172e+001
2.162235e+003,1.776015e+001
2.163199e+003,1.883304e+001
2.164164e+003,1.684078e+001
2.165128e+003,1.435800e+001
2.166092e+003,1.346622e+001
2.167056e+003,1.383366e+001
2.168021e+003,1.561497e+001
2.168985e+003,1.710593e+001
2.169949e+003,1.523283e+001
2.170913e+003,1.146415e+001
2.171877e+003,8.568031e+000
2.172842e+003,7.213844e+000
2.173806e+003,7.986191e+000
2.174770e+003,1.043344e+001
2.175734e+003,1.294028e+001
2.176699e+003,1.461722e+001
2.177663e+003,1.514430e+001
2.178627e+003,1.424464e+001
2.179591e+003,1.312300e+001
2.180556e+003,1.356300e+001
2.181520e+003,1.446636e+001
2.182484e+003,1.381255e+001
2.183448e+003,1.229216e+001
2.184413e+003,1.108700e+001
2.185377e+003,1.026235e+001
2.186341e+003,9.549942e+000
2.187305e+003,8.909431e+000
2.188270e+003,9.016708e+000
2.189234e+003,1.025230e+001
2.190198e+003,1.181485e+001
2.191162e+003,1.270026e+001
2.192126e+003,1.263512e+001
2.193091e+003,1.156583e+001
2.194055e+003,1.021365e+001
2.195019e+003,1.008313e+001
2.195983e+003,1.088042e+001
2.196948e+003,1.109422e+001
2.197912e+003,1.069765e+001
2.198876e+003,1.038183e+001
2.199840e+003,1.005949e+001
2.200804e+003,9.111351e+000
2.201769e+003,7.367966e+000
2.202733e+003,5.414948e+000
2.203697e+003,3.881172e+000
2.204661e+003,3.630852e+000
2.205626e+003,6.135452e+000
2.206590e+003,9.739624e+000
2.207554e+003,1.073875e+001
2.208518e+003,9.609009e+000
2.209483e+003,7.992226e+000
2.210447e+003,6.511551e+000
2.211411e+003,6.129082e+000
2.212375e+003,6.900589e+000
2.213340e+003,9.143723e+000
2.214304e+003,1.245583e+001
2.215268e+003,1.297013e+001
2.216232e+003,8.145401e+000
2.217197e+003,2.919846e+000
2.218161e+003,3.285538e+000
2.219125e+003,6.199738e+000
2.220089e+003,6.549873e+000
2.221053e+003,5.721474e+000
2.222018e+003,5.905869e+000
2.222982e+003,6.244278e+000
2.223946e+003,5.550217e+000
2.224910e+003,4.316360e+000
2.225875e+003,3.202721e+000
2.226839e+003,2.460320e+000
2.227803e+003,3.283585e+000
2.228767e+003,6.000999e+000
2.229731e+003,7.707687e+000
2.230696e+003,5.806900e+000
2.231660e+003,2.784340e+000
2.232624e+003,2.252113e+000
2.233588e+003,3.102356e+000
2.234553e+003,2.479454e+000
2.235517e+003,1.431427e+000
2.236481e+003,2.357346e+000
2.237445e+003,4.555916e+000
2.238410e+003,6.824120e+000
2.239374e+003,8.780296e+000
2.240338e+003,9.076340e+000
2.241302e+003,7.447144e+000
2.242267e+003,6.598145e+000
2.243231e+003,8.499710e+000
2.244195e+003,1.083401e+001
2.245159e+003,1.132188e+001
2.246124e+003,1.060331e+001
2.247088e+003,9.066826e+000
2.248052e+003,7.159241e+000
2.249016e+003,5.718460e+000
2.249980e+003,4.791634e+000
2.250945e+003,4.005875e+000
2.251909e+003,3.606834e+000
2.252873e+003,4.255203e+000
2.253837e+003,5.642601e+000
2.254802e+003,6.497589e+000
2.255766e+003,6.458229e+000
2.256730e+003,5.969086e+000
2.257694e+003,4.471893e+000
2.258658e+003,3.366432e+000
2.259623e+003,4.198265e+000
2.260587e+003,5.497162e+000
2.261551e+003,6.300568e+000
2.262515e+003,6.537933e+000
2.263480e+003,6.300003e+000
2.264444e+003,5.675064e+000
2.265408e+003,3.836685e+000
2.266372e+003,1.140930e+000
2.267337e+003,0.000000e+000
2.268301e+003,1.205925e+000
2.269265e+003,2.890984e+000
2.270229e+003,5.533234e+000
2.271194e+003,8.068939e+000
2.272158e+003,8.159874e+000
2.273122e+003,7.812378e+000
2.274086e+003,9.315605e+000
2.275051e+003,1.050475e+001
2.276015e+003,9.509071e+000
2.276979e+003,7.786514e+000
2.277943e+003,6.321053e+000
2.278907e+003,5.448669e+000
2.279872e+003,6.250275e+000
2.280836e+003,8.434227e+000
2.281800e+003,9.081978e+000
2.282764e+003,7.135376e+000
2.283729e+003,6.547577e+000
2.284693e+003,9.354752e+000
2.285657e+003,1.227429e+001
2.286621e+003,1.483719e+001
2.287585e+003,1.504298e+001
2.288550e+003,9.822388e+000
2.289514e+003,5.128944e+000
2.290478e+003,7.008064e+000
2.291442e+003,1.203929e+001
2.292407e+003,1.473343e+001
2.293371e+003,1.499860e+001
2.294335e+003,1.309396e+001
2.295299e+003,7.960892e+000
2.296264e+003,6.471123e+000
2.297228e+003,1.158144e+001
2.298192e+003,1.379955e+001
2.299156e+003,1.116159e+001
2.300121e+003,9.690002e+000
2.301085e+003,1.079269e+001
2.302049e+003,1.235021e+001
2.303013e+003,1.353647e+001
2.303978e+003,1.487108e+001
2.304942e+003,1.681240e+001
2.305906e+003,1.883154e+001
2.306870e+003,2.003310e+001
2.307834e+003,2.044175e+001
2.308799e+003,1.998402e+001
2.309763e+003,1.875559e+001
2.310727e+003,1.976854e+001
2.311691e+003,2.300069e+001
2.312656e+003,2.418974e+001
2.313620e+003,2.255054e+001
2.314584e+003,2.099630e+001
2.315548e+003,2.067357e+001
2.316512e+003,2.035969e+001
2.317477e+003,1.943306e+001
2.318441e+003,1.942411e+001
2.319405e+003,2.186487e+001
2.320369e+003,2.525271e+001
2.321334e+003,2.614944e+001
2.322298e+003,2.516967e+001
2.323262e+003,2.528419e+001
2.324226e+003,2.749623e+001
2.325191e+003,3.498630e+001
2.326155e+003,4.507952e+001
2.327119e+003,4.807001e+001
2.328083e+003,4.329853e+001
2.329048e+003,3.834158e+001
2.330012e+003,3.669444e+001
2.330976e+003,3.685624e+001
2.331940e+003,3.733257e+001
2.332905e+003,3.762403e+001
2.333869e+003,3.796944e+001
2.334833e+003,3.862245e+001
2.335797e+003,4.014761e+001
2.336761e+003,4.173740e+001
2.337726e+003,4.119266e+001
2.338690e+003,3.989848e+001
2.339654e+003,4.079680e+001
2.340618e+003,4.339075e+001
2.341583e+003,4.598790e+001
2.342547e+003,4.815362e+001
2.343511e+003,4.906897e+001
2.344475e+003,4.817561e+001
2.345439e+003,4.877801e+001
2.346404e+003,5.395514e+001
2.347368e+003,5.696246e+001
2.348332e+003,5.400499e+001
2.349296e+003,5.205798e+001
2.350261e+003,5.438079e+001
2.351225e+003,5.825854e+001
2.352189e+003,6.239133e+001
2.353153e+003,6.578336e+001
2.354118e+003,6.717619e+001
2.355082e+003,6.733174e+001
2.356046e+003,6.817690e+001
2.357010e+003,7.011329e+001
2.357975e+003,7.280103e+001
2.358939e+003,7.635429e+001
2.359903e+003,7.952738e+001
2.360867e+003,8.124284e+001
2.361832e+003,8.334865e+001
2.362796e+003,8.754218e+001
2.363760e+003,8.990894e+001
2.364724e+003,8.894024e+001
2.365688e+003,8.847231e+001
2.366653e+003,9.000008e+001
2.367617e+003,9.220270e+001
2.368581e+003,9.431950e+001
2.369545e+003,9.677016e+001
2.370510e+003,1.005200e+002
2.371474e+003,1.050372e+002
2.372438e+003,1.065551e+002
2.373402e+003,1.058909e+002
2.374366e+003,1.081142e+002
2.375331e+003,1.125966e+002
2.376295e+003,1.147514e+002
2.377259e+003,1.145911e+002
2.378223e+003,1.161335e+002
2.379188e+003,1.199592e+002
2.380152e+003,1.216684e+002
2.381116e+003,1.192781e+002
2.382080e+003,1.184776e+002
2.383045e+003,1.245142e+002
2.384009e+003,1.308367e+002
2.384973e+003,1.316040e+002
2.385937e+003,1.300334e+002
2.386902e+003,1.282036e+002
2.387866e+003,1.272146e+002
2.388830e+003,1.271209e+002
2.389794e+003,1.277773e+002
2.390759e+003,1.305899e+002
2.391723e+003,1.338387e+002
2.392687e+003,1.331700e+002
2.393651e+003,1.291912e+002
2.394615e+003,1.280099e+002
2.395580e+003,1.307129e+002
2.396544e+003,1.343254e+002
2.397508e+003,1.409053e+002
2.398472e+003,1.440220e+002
2.399437e+003,1.415235e+002
2.400401e+003,1.384244e+002
2.401365e+003,1.344985e+002
2.402329e+003,1.325756e+002
2.403293e+003,1.352260e+002
2.404258e+003,1.386917e+002
2.405222e+003,1.391463e+002
2.406186e+003,1.381943e+002
2.407150e+003,1.385769e+002
2.408115e+003,1.400609e+002
2.409079e+003,1.425122e+002
2.410043e+003,1.457831e+002
2.411007e+003,1.470692e+002
2.411972e+003,1.466720e+002
2.412936e+003,1.476052e+002
2.413900e+003,1.498524e+002
2.414864e+003,1.522031e+002
2.415829e+003,1.545245e+002
2.416793e+003,1.564108e+002
2.417757e+003,1.573431e+002
2.418721e+003,1.565500e+002
2.419686e+003,1.532072e+002
2.420650e+003,1.503805e+002
2.421614e+003,1.514295e+002
2.422578e+003,1.540541e+002
2.423542e+003,1.567636e+002
2.424507e+003,1.586813e+002
2.425471e+003,1.590282e+002
2.426435e+003,1.587104e+002
2.427399e+003,1.585614e+002
2.428364e+003,1.576614e+002
2.429328e+003,1.541283e+002
2.430292e+003,1.493145e+002
2.431256e+003,1.481295e+002
2.432220e+003,1.516772e+002
2.433185e+003,1.541452e+002
2.434149e+003,1.531861e+002
2.435113e+003,1.530394e+002
2.436077e+003,1.551738e+002
2.437042e+003,1.560647e+002
2.438006e+003,1.542179e+002
2.438970e+003,1.530426e+002
2.439934e+003,1.546952e+002
2.440899e+003,1.553968e+002
2.441863e+003,1.519398e+002
2.442827e+003,1.476924e+002
2.443791e+003,1.471595e+002
2.444756e+003,1.483772e+002
2.445720e+003,1.463370e+002
2.446684e+003,1.420209e+002
2.447648e+003,1.402603e+002
2.448613e+003,1.404182e+002
2.449577e+003,1.405363e+002
2.450541e+003,1.399419e+002
2.451505e+003,1.360281e+002
2.452469e+003,1.300482e+002
2.453434e+003,1.278319e+002
2.454398e+003,1.300576e+002
2.455362e+003,1.321058e+002
2.456326e+003,1.328736e+002
2.457291e+003,1.331031e+002
2.458255e+003,1.317211e+002
2.459219e+003,1.303454e+002
2.460183e+003,1.298568e+002
2.461147e+003,1.283007e+002
2.462112e+003,1.247760e+002
2.463076e+003,1.216544e+002
2.464040e+003,1.200835e+002
2.465004e+003,1.188148e+002
2.465969e+003,1.168731e+002
2.466933e+003,1.155928e+002
2.467897e+003,1.168728e+002
2.468861e+003,1.196043e+002
2.469826e+003,1.194446e+002
2.470790e+003,1.161430e+002
2.471754e+003,1.144293e+002
2.472718e+003,1.147911e+002
2.473683e+003,1.144221e+002
2.474647e+003,1.124036e+002
2.475611e+003,1.108671e+002
2.476575e+003,1.107506e+002
2.477540e+003,1.106726e+002
2.478504e+003,1.097995e+002
2.479468e+003,1.085329e+002
2.480432e+003,1.072378e+002
2.481396e+003,1.067279e+002
2.482361e+003,1.087142e+002
2.483325e+003,1.110436e+002
2.484289e+003,1.106288e+002
2.485253e+003,1.088196e+002
2.486218e+003,1.065231e+002
2.487182e+003,1.045208e+002
2.488146e+003,1.045086e+002
2.489110e+003,1.052072e+002
2.490074e+003,1.040057e+002
2.491039e+003,1.020133e+002
2.492003e+003,1.024879e+002
2.492967e+003,1.047324e+002
2.493931e+003,1.042444e+002
2.494896e+003,1.008902e+002
2.495860e+003,9.802363e+001
2.496824e+003,9.520218e+001
2.497788e+003,9.533886e+001
2.498753e+003,9.910577e+001
2.499717e+003,1.013201e+002
2.500681e+003,1.007076e+002
2.501645e+003,1.008202e+002
2.502610e+003,1.031471e+002
2.503574e+003,1.045222e+002
2.504538e+003,1.026916e+002
2.505502e+003,1.005842e+002
2.506467e+003,1.014164e+002
2.507431e+003,1.026902e+002
2.508395e+003,1.011191e+002
2.509359e+003,9.883196e+001
2.510323e+003,9.843317e+001
2.511288e+003,9.872176e+001
2.512252e+003,9.799677e+001
2.513216e+003,9.679293e+001
2.514180e+003,9.596811e+001
2.515145e+003,9.577077e+001
2.516109e+003,9.651083e+001
2.517073e+003,9.808201e+001
2.518037e+003,9.925468e+001
2.519001e+003,9.976089e+001
2.519966e+003,1.003433e+002
2.520930e+003,1.011648e+002
2.521894e+003,1.016066e+002
2.522858e+003,1.015816e+002
2.523823e+003,1.014702e+002
2.524787e+003,1.013042e+002
2.525751e+003,1.011730e+002
2.526715e+003,1.011687e+002
2.527680e+003,1.008254e+002
2.528644e+003,9.988110e+001
2.529608e+003,9.933813e+001
2.530572e+003,1.000897e+002
2.531537e+003,1.007634e+002
2.532501e+003,1.000398e+002
2.533465e+003,9.862277e+001
2.534429e+003,9.697970e+001
2.535394e+003,9.569336e+001
2.536358e+003,9.534112e+001
2.537322e+003,9.488409e+001
2.538286e+003,9.248882e+001
2.539250e+003,8.952431e+001
2.540215e+003,8.948194e+001
2.541179e+003,9.217023e+001
2.542143e+003,9.370916e+001
2.543107e+003,9.441000e+001
2.544072e+003,9.552692e+001
2.545036e+003,9.690015e+001
2.546000e+003,9.624477e+001
2.546964e+003,9.279042e+001
2.547928e+003,9.192920e+001
2.548893e+003,9.478789e+001
2.549857e+003,9.684822e+001
2.550821e+003,9.653747e+001
2.551785e+003,9.496873e+001
2.552750e+003,9.282087e+001
2.553714e+003,9.083006e+001
2.554678e+003,8.979074e+001
2.555642e+003,8.946864e+001
2.556607e+003,8.906937e+001
2.557571e+003,8.873890e+001
2.558535e+003,8.925494e+001
2.559499e+003,8.970295e+001
2.560464e+003,9.009593e+001
2.561428e+003,9.031618e+001
2.562392e+003,8.976392e+001
2.563356e+003,8.798323e+001
2.564321e+003,8.358892e+001
2.565285e+003,7.848654e+001
2.566249e+003,7.880376e+001
2.567213e+003,8.402467e+001
2.568177e+003,8.601115e+001
2.569142e+003,8.476443e+001
2.570106e+003,8.357956e+001
2.571070e+003,8.286670e+001
2.572034e+003,8.180319e+001
2.572999e+003,8.041209e+001
2.573963e+003,7.870490e+001
2.574927e+003,7.667423e+001
2.575891e+003,7.623951e+001
2.576855e+003,7.786311e+001
2.577820e+003,7.840488e+001
2.578784e+003,7.668275e+001
2.579748e+003,7.499006e+001
2.580712e+003,7.462608e+001
2.581677e+003,7.421771e+001
2.582641e+003,7.200399e+001
2.583605e+003,6.975692e+001
2.584569e+003,6.842583e+001
2.585534e+003,6.821082e+001
2.586498e+003,6.976368e+001
2.587462e+003,7.163216e+001
2.588426e+003,7.221049e+001
2.589391e+003,7.171234e+001
2.590355e+003,7.071429e+001
2.591319e+003,6.957002e+001
2.592283e+003,6.955331e+001
2.593248e+003,6.990581e+001
2.594212e+003,6.732805e+001
2.595176e+003,6.371851e+001
2.596140e+003,6.407459e+001
2.597104e+003,6.674824e+001
2.598069e+003,6.760243e+001
2.599033e+003,6.648447e+001
2.599997e+003,6.516514e+001
2.600961e+003,6.414005e+001
2.601926e+003,6.259379e+001
2.602890e+003,5.979332e+001
2.603854e+003,5.862168e+001
2.604818e+003,6.026250e+001
2.605782e+003,6.003887e+001
2.606747e+003,5.737244e+001
2.607711e+003,5.604619e+001
2.608675e+003,5.684776e+001
2.609639e+003,5.790337e+001
2.610604e+003,5.857902e+001
2.611568e+003,5.913700e+001
2.612532e+003,5.963377e+001
2.613496e+003,5.981755e+001
2.614461e+003,5.931991e+001
2.615425e+003,5.817776e+001
2.616389e+003,5.654000e+001
2.617353e+003,5.458710e+001
2.618318e+003,5.145380e+001
2.619282e+003,4.966205e+001
2.620246e+003,5.359631e+001
2.621210e+003,5.828568e+001
2.622175e+003,5.715872e+001
2.623139e+003,5.359475e+001
2.624103e+003,5.191254e+001
2.625067e+003,5.144579e+001
2.626031e+003,5.226927e+001
2.626996e+003,5.452354e+001
2.627960e+003,5.256538e+001
2.628924e+003,4.698279e+001
2.629888e+003,4.631664e+001
2.630853e+003,4.905837e+001
2.631817e+003,5.100996e+001
2.632781e+003,5.246393e+001
2.633745e+003,5.221837e+001
2.634709e+003,5.003603e+001
2.635674e+003,4.842828e+001
2.636638e+003,4.818694e+001
2.637602e+003,4.864157e+001
2.638566e+003,5.089709e+001
2.639531e+003,5.222562e+001
2.640495e+003,4.969106e+001
2.641459e+003,4.829271e+001
2.642423e+003,4.893453e+001
2.643388e+003,4.995979e+001
2.644352e+003,5.093742e+001
2.645316e+003,5.095356e+001
2.646280e+003,4.963689e+001
2.647245e+003,4.811440e+001
2.648209e+003,4.765233e+001
2.649173e+003,4.697079e+001
2.650137e+003,4.361779e+001
2.651102e+003,4.143008e+001
2.652066e+003,4.476653e+001
2.653030e+003,4.828420e+001
2.653994e+003,4.999163e+001
2.654958e+003,5.092719e+001
2.655923e+003,5.164824e+001
2.656887e+003,5.184950e+001
2.657851e+003,5.020598e+001
2.658815e+003,4.749267e+001
2.659780e+003,4.476150e+001
2.660744e+003,4.265887e+001
2.661708e+003,4.214215e+001
2.662672e+003,4.322470e+001
2.663636e+003,4.638092e+001
2.664601e+003,5.037392e+001
2.665565e+003,5.184891e+001
2.666529e+003,5.103161e+001
2.667493e+003,4.691219e+001
2.668458e+003,4.204879e+001
2.669422e+003,4.121294e+001
2.670386e+003,4.271064e+001
2.671350e+003,4.248221e+001
2.672315e+003,4.098080e+001
2.673279e+003,4.021496e+001
2.674243e+003,3.969624e+001
2.675207e+003,3.863802e+001
2.676172e+003,3.693332e+001
2.677136e+003,3.645812e+001
2.678100e+003,3.761768e+001
2.679064e+003,3.763208e+001
2.680029e+003,3.580428e+001
2.680993e+003,3.494981e+001
2.681957e+003,3.586990e+001
2.682921e+003,3.561906e+001
2.683885e+003,3.294110e+001
2.684850e+003,3.186884e+001
2.685814e+003,3.595709e+001
2.686778e+003,3.926302e+001
2.687742e+003,3.791500e+001
2.688707e+003,3.628378e+001
2.689671e+003,3.358822e+001
2.690635e+003,3.206827e+001
2.691599e+003,3.363920e+001
2.692563e+003,3.459464e+001
2.693528e+003,3.329649e+001
2.694492e+003,3.119596e+001
2.695456e+003,2.915623e+001
2.696420e+003,2.822000e+001
2.697385e+003,2.984977e+001
2.698349e+003,3.172453e+001
2.699313e+003,3.100198e+001
2.700277e+003,2.983663e+001
2.701242e+003,2.935958e+001
2.702206e+003,2.887087e+001
2.703170e+003,2.819782e+001
2.704134e+003,2.772187e+001
2.705099e+003,2.867468e+001
2.706063e+003,2.965391e+001
2.707027e+003,2.860783e+001
2.707991e+003,2.653281e+001
2.708956e+003,2.515726e+001
2.709920e+003,2.415534e+001
2.710884e+003,2.446118e+001
2.711848e+003,2.560082e+001
2.712813e+003,2.524399e+001
2.713777e+003,2.424728e+001
2.714741e+003,2.213551e+001
2.715705e+003,1.976319e+001
2.716669e+003,2.182908e+001
2.717634e+003,2.635513e+001
2.718598e+003,2.668556e+001
2.719562e+003,2.370335e+001
2.720526e+003,2.269980e+001
2.721490e+003,2.214034e+001
2.722455e+003,2.182282e+001
2.723419e+003,2.273227e+001
2.724383e+003,2.274911e+001
2.725347e+003,2.198993e+001
2.726312e+003,2.079123e+001
2.727276e+003,1.909377e+001
2.728240e+003,1.930877e+001
2.729204e+003,2.191911e+001
2.730169e+003,2.348059e+001
2.731133e+003,2.224302e+001
2.732097e+003,2.082681e+001
2.733061e+003,2.044523e+001
2.734026e+003,1.883583e+001
2.734990e+003,1.672442e+001
2.735954e+003,1.648447e+001
2.736918e+003,1.739373e+001
2.737883e+003,1.791110e+001
2.738847e+003,1.744836e+001
2.739811e+003,1.708732e+001
2.740775e+003,1.732403e+001
2.741740e+003,1.716671e+001
2.742704e+003,1.668182e+001
2.743668e+003,1.671668e+001
2.744632e+003,1.715611e+001
2.745596e+003,1.719820e+001
2.746561e+003,1.472807e+001
2.747525e+003,1.261834e+001
2.748489e+003,1.391433e+001
2.749453e+003,1.457030e+001
2.750417e+003,1.344061e+001
2.751382e+003,1.357229e+001
2.752346e+003,1.590942e+001
2.753310e+003,1.774947e+001
2.754274e+003,1.724551e+001
2.755239e+003,1.521996e+001
2.756203e+003,1.208851e+001
2.757167e+003,9.925552e+000
2.758131e+003,1.141172e+001
2.759096e+003,1.304455e+001
2.760060e+003,1.309938e+001
2.761024e+003,1.246443e+001
2.761988e+003,1.108189e+001
2.762953e+003,9.877563e+000
2.763917e+003,9.227531e+000
2.764881e+003,9.287552e+000
2.765845e+003,1.031595e+001
2.766810e+003,1.123039e+001
2.767774e+003,1.080260e+001
2.768738e+003,9.880981e+000
2.769702e+003,8.656380e+000
2.770667e+003,8.216621e+000
2.771631e+003,9.031021e+000
2.772595e+003,1.007516e+001
2.773559e+003,1.299486e+001
2.774523e+003,1.580515e+001
2.775488e+003,1.608775e+001
2.776452e+003,1.565496e+001
2.777416e+003,1.452220e+001
2.778380e+003,1.172045e+001
2.779344e+003,1.124866e+001
2.780309e+003,1.318250e+001
2.781273e+003,1.090673e+001
2.782237e+003,8.030151e+000
2.783201e+003,9.195679e+000
2.784166e+003,1.044331e+001
2.785130e+003,1.034447e+001
2.786094e+003,9.600395e+000
2.787058e+003,7.825989e+000
2.788023e+003,6.571022e+000
2.788987e+003,7.567909e+000
2.789951e+003,9.800636e+000
2.790915e+003,1.237492e+001
2.791880e+003,1.501833e+001
2.792844e+003,1.435011e+001
2.793808e+003,1.188197e+001
2.794772e+003,1.112505e+001
2.795737e+003,1.086016e+001
2.796701e+003,1.095140e+001
2.797665e+003,1.158207e+001
2.798629e+003,1.246638e+001
2.799594e+003,1.347987e+001
2.800558e+003,1.296710e+001
2.801522e+003,1.104904e+001
2.802486e+003,1.107668e+001
2.803450e+003,1.219508e+001
2.804415e+003,1.029762e+001
2.805379e+003,6.437294e+000
2.806343e+003,6.995331e+000
2.807307e+003,1.182283e+001
2.808271e+003,1.373204e+001
2.809236e+003,1.167288e+001
2.810200e+003,1.090541e+001
2.811164e+003,1.242474e+001
2.812128e+003,1.218906e+001
2.813093e+003,1.005031e+001
2.814057e+003,1.153070e+001
2.815021e+003,1.530953e+001
2.815985e+003,1.520239e+001
2.816950e+003,1.323900e+001
2.817914e+003,1.130795e+001
2.818878e+003,9.183578e+000
2.819842e+003,9.041344e+000
2.820807e+003,1.079713e+001
2.821771e+003,1.144125e+001
2.822735e+003,1.021869e+001
2.823699e+003,9.892311e+000
2.824664e+003,1.186739e+001
2.825628e+003,1.329788e+001
2.826592e+003,1.428535e+001
2.827556e+003,1.508043e+001
2.828521e+003,1.472735e+001
2.829485e+003,1.297818e+001
2.830449e+003,1.094745e+001
2.831413e+003,1.123942e+001
2.832377e+003,1.311320e+001
2.833342e+003,1.418611e+001
2.834306e+003,1.438298e+001
2.835270e+003,1.474129e+001
2.836234e+003,1.532198e+001
2.837198e+003,1.571374e+001
2.838163e+003,1.544918e+001
2.839127e+003,1.786672e+001
2.840091e+003,2.329913e+001
2.841055e+003,2.562325e+001
2.842020e+003,2.450963e+001
2.842984e+003,2.460411e+001
2.843948e+003,2.663282e+001
2.844912e+003,2.871188e+001
2.845877e+003,3.033750e+001
2.846841e+003,3.174163e+001
2.847805e+003,3.294911e+001
2.848769e+003,3.334061e+001
2.849734e+003,3.227512e+001
2.850698e+003,3.172802e+001
2.851662e+003,3.181532e+001
2.852626e+003,3.051631e+001
2.853591e+003,2.818899e+001
2.854555e+003,2.627482e+001
2.855519e+003,2.502887e+001
2.856483e+003,2.545519e+001
2.857448e+003,2.720795e+001
2.858412e+003,2.738406e+001
2.859376e+003,2.549916e+001
2.860340e+003,2.411483e+001
2.861304e+003,2.294187e+001
2.862269e+003,2.309587e+001
2.863233e+003,2.419035e+001
2.864197e+003,2.445177e+001
2.865161e+003,2.453192e+001
2.866125e+003,2.471416e+001
2.867090e+003,2.451061e+001
2.868054e+003,2.352997e+001
2.869018e+003,2.194629e+001
2.869982e+003,2.142400e+001
2.870947e+003,2.342694e+001
2.871911e+003,2.567462e+001
2.872875e+003,2.699876e+001
2.873839e+003,2.717729e+001
2.874804e+003,2.642296e+001
2.875768e+003,2.729003e+001
2.876732e+003,2.967899e+001
2.877696e+003,3.066251e+001
2.878661e+003,3.017740e+001
2.879625e+003,3.087684e+001
2.880589e+003,3.301221e+001
2.881553e+003,3.352961e+001
2.882518e+003,3.155030e+001
2.883482e+003,3.048338e+001
2.884446e+003,3.042606e+001
2.885410e+003,3.062424e+001
2.886375e+003,3.100716e+001
2.887339e+003,3.230871e+001
2.888303e+003,3.406066e+001
2.889267e+003,3.325132e+001
2.890231e+003,3.058552e+001
2.891196e+003,3.062409e+001
2.892160e+003,3.385730e+001
2.893124e+003,3.598827e+001
2.894088e+003,3.638197e+001
2.895052e+003,3.520380e+001
2.896017e+003,3.217534e+001
2.896981e+003,3.217384e+001
2.897945e+003,3.465485e+001
2.898909e+003,3.457689e+001
2.899874e+003,3.276664e+001
2.900838e+003,3.404449e+001
2.901802e+003,3.778453e+001
2.902766e+003,3.898238e+001
2.903731e+003,3.736522e+001
2.904695e+003,3.831973e+001
2.905659e+003,4.208613e+001
2.906623e+003,4.324279e+001
2.907588e+003,4.205787e+001
2.908552e+003,4.357256e+001
2.909516e+003,4.683615e+001
2.910480e+003,4.821122e+001
2.911445e+003,4.779738e+001
2.912409e+003,4.634680e+001
2.913373e+003,4.464811e+001
2.914337e+003,4.432079e+001
2.915302e+003,4.523458e+001
2.916266e+003,4.568823e+001
2.917230e+003,4.584693e+001
2.918194e+003,4.819108e+001
2.919158e+003,5.201399e+001
2.920123e+003,5.455492e+001
2.921087e+003,5.576873e+001
2.922051e+003,5.508511e+001
2.923015e+003,5.380236e+001
2.923979e+003,5.386469e+001
2.924944e+003,5.539175e+001
2.925908e+003,5.865692e+001
2.926872e+003,6.226632e+001
2.927836e+003,6.138583e+001
2.928801e+003,5.766161e+001
2.929765e+003,5.854659e+001
2.930729e+003,6.193941e+001
2.931693e+003,6.371581e+001
2.932658e+003,6.466035e+001
2.933622e+003,6.684457e+001
2.934586e+003,6.867978e+001
2.935550e+003,6.658007e+001
2.936515e+003,6.357600e+001
2.937479e+003,6.394601e+001
2.938443e+003,6.621237e+001
2.939407e+003,6.729448e+001
2.940372e+003,6.750519e+001
2.941336e+003,6.722430e+001
2.942300e+003,6.676418e+001
2.943264e+003,6.599258e+001
2.944229e+003,6.581010e+001
2.945193e+003,6.859507e+001
2.946157e+003,7.030480e+001
2.947121e+003,6.672034e+001
2.948085e+003,6.314044e+001
2.949050e+003,6.600935e+001
2.950014e+003,7.093404e+001
2.950978e+003,7.121677e+001
2.951942e+003,6.986769e+001
2.952906e+003,6.988205e+001
2.953871e+003,7.016641e+001
2.954835e+003,6.981007e+001
2.955799e+003,6.967880e+001
2.956763e+003,7.033987e+001
2.957728e+003,7.087699e+001
2.958692e+003,7.065694e+001
2.959656e+003,7.104868e+001
2.960620e+003,7.339767e+001
2.961585e+003,7.584023e+001
2.962549e+003,7.686354e+001
2.963513e+003,7.697420e+001
2.964477e+003,7.523958e+001
2.965442e+003,7.475629e+001
2.966406e+003,7.697168e+001
2.967370e+003,7.845007e+001
2.968334e+003,7.803134e+001
2.969299e+003,7.688644e+001
2.970263e+003,7.570547e+001
2.971227e+003,7.571401e+001
2.972191e+003,7.777716e+001
2.973156e+003,8.030083e+001
2.974120e+003,8.345195e+001
2.975084e+003,8.515053e+001
2.976048e+003,8.501796e+001
2.977012e+003,8.403491e+001
2.977977e+003,8.239081e+001
2.978941e+003,8.215640e+001
2.979905e+003,8.363240e+001
2.980869e+003,8.528565e+001
2.981833e+003,8.652448e+001
2.982798e+003,8.725301e+001
2.983762e+003,8.728157e+001
2.984726e+003,8.796222e+001
2.985690e+003,8.998214e+001
2.986655e+003,8.867457e+001
2.987619e+003,8.442553e+001
2.988583e+003,8.513242e+001
2.989547e+003,8.990369e+001
2.990512e+003,9.205717e+001
2.991476e+003,9.129318e+001
2.992440e+003,9.117790e+001
2.993404e+003,9.218723e+001
2.994369e+003,9.268024e+001
2.995333e+003,9.260527e+001
2.996297e+003,9.103497e+001
2.997261e+003,8.868864e+001
2.998226e+003,9.104061e+001
2.999190e+003,9.567350e+001
3.000154e+003,9.657094e+001
3.001118e+003,9.544023e+001
3.002083e+003,9.637576e+001
3.003047e+003,9.840128e+001
3.004011e+003,9.855733e+001
3.004975e+003,9.783574e+001
3.005939e+003,9.869330e+001
3.006904e+003,1.004530e+002
3.007868e+003,1.016494e+002
3.008832e+003,1.021234e+002
3.009796e+003,1.002227e+002
3.010760e+003,9.903541e+001
3.011725e+003,1.035861e+002
3.012689e+003,1.079845e+002
3.013653e+003,1.071675e+002
3.014617e+003,1.049959e+002
3.015582e+003,1.052869e+002
3.016546e+003,1.067723e+002
3.017510e+003,1.081324e+002
3.018474e+003,1.092723e+002
3.019439e+003,1.099427e+002
3.020403e+003,1.105940e+002
3.021367e+003,1.120546e+002
3.022331e+003,1.121612e+002
3.023296e+003,1.096992e+002
3.024260e+003,1.096559e+002
3.025224e+003,1.142669e+002
3.026188e+003,1.184618e+002
3.027153e+003,1.190949e+002
3.028117e+003,1.187747e+002
3.029081e+003,1.186611e+002
3.030045e+003,1.184873e+002
3.031010e+003,1.179627e+002
3.031974e+003,1.181977e+002
3.032938e+003,1.193248e+002
3.033902e+003,1.210884e+002
3.034866e+003,1.230075e+002
3.035831e+003,1.226876e+002
3.036795e+003,1.200366e+002
3.037759e+003,1.185811e+002
3.038723e+003,1.193228e+002
3.039688e+003,1.214231e+002
3.040652e+003,1.250982e+002
3.041616e+003,1.276327e+002
3.042580e+003,1.291183e+002
3.043544e+003,1.301104e+002
3.044509e+003,1.307707e+002
3.045473e+003,1.312242e+002
3.046437e+003,1.315605e+002
3.047401e+003,1.316449e+002
3.048366e+003,1.319138e+002
3.049330e+003,1.337006e+002
3.050294e+003,1.362503e+002
3.051258e+003,1.361722e+002
3.052223e+003,1.350422e+002
3.053187e+003,1.368327e+002
3.054151e+003,1.395916e+002
3.055115e+003,1.411564e+002
3.056080e+003,1.419134e+002
3.057044e+003,1.423274e+002
3.058008e+003,1.424204e+002
3.058972e+003,1.421032e+002
3.059937e+003,1.419736e+002
3.060901e+003,1.428941e+002
3.061865e+003,1.438891e+002
3.062829e+003,1.434637e+002
3.063793e+003,1.433642e+002
3.064758e+003,1.451879e+002
3.065722e+003,1.464603e+002
3.066686e+003,1.461676e+002
3.067650e+003,1.471510e+002
3.068615e+003,1.503877e+002
3.069579e+003,1.527000e+002
3.070543e+003,1.525048e+002
3.071507e+003,1.522106e+002
3.072471e+003,1.531290e+002
3.073436e+003,1.536402e+002
3.074400e+003,1.533522e+002
3.075364e+003,1.535475e+002
3.076328e+003,1.542289e+002
3.077293e+003,1.532764e+002
3.078257e+003,1.511468e+002
3.079221e+003,1.506924e+002
3.080185e+003,1.522733e+002
3.081150e+003,1.553886e+002
3.082114e+003,1.593445e+002
3.083078e+003,1.589431e+002
3.084042e+003,1.546947e+002
3.085007e+003,1.540519e+002
3.085971e+003,1.559710e+002
3.086935e+003,1.582894e+002
3.087899e+003,1.601890e+002
3.088864e+003,1.605395e+002
3.089828e+003,1.599263e+002
3.090792e+003,1.587308e+002
3.091756e+003,1.583120e+002
3.092720e+003,1.606878e+002
3.093685e+003,1.638624e+002
3.094649e+003,1.643568e+002
3.095613e+003,1.638438e+002
3.096577e+003,1.635892e+002
3.097542e+003,1.638917e+002
3.098506e+003,1.652806e+002
3.099470e+003,1.667370e+002
3.100434e+003,1.679164e+002
3.101398e+003,1.695809e+002
3.102363e+003,1.720212e+002
3.103327e+003,1.726338e+002
3.104291e+003,1.694889e+002
3.105255e+003,1.665937e+002
3.106220e+003,1.655800e+002
3.107184e+003,1.655836e+002
3.108148e+003,1.665370e+002
3.109112e+003,1.686780e+002
3.110077e+003,1.717001e+002
3.111041e+003,1.737155e+002
3.112005e+003,1.744268e+002
3.112969e+003,1.738451e+002
3.113934e+003,1.725124e+002
3.114898e+003,1.738767e+002
3.115862e+003,1.775696e+002
3.116826e+003,1.778058e+002
3.117791e+003,1.755820e+002
3.118755e+003,1.752800e+002
3.119719e+003,1.764372e+002
3.120683e+003,1.791142e+002
3.121647e+003,1.815302e+002
3.122612e+003,1.802631e+002
3.123576e+003,1.786768e+002
3.124540e+003,1.803356e+002
3.125504e+003,1.829020e+002
3.126469e+003,1.829457e+002
3.127433e+003,1.822490e+002
3.128397e+003,1.829279e+002
3.129361e+003,1.837019e+002
3.130325e+003,1.828620e+002
3.131290e+003,1.839049e+002
3.132254e+003,1.882364e+002
3.133218e+003,1.911576e+002
3.134182e+003,1.909919e+002
3.135147e+003,1.912359e+002
3.136111e+003,1.935721e+002
3.137075e+003,1.946182e+002
3.138039e+003,1.922415e+002
3.139004e+003,1.904706e+002
3.139968e+003,1.891888e+002
3.140932e+003,1.923164e+002
3.141896e+003,1.987552e+002
3.142861e+003,2.027757e+002
3.143825e+003,2.038556e+002
3.144789e+003,2.024997e+002
3.145753e+003,1.998172e+002
3.146718e+003,1.984730e+002
3.147682e+003,1.983688e+002
3.148646e+003,1.989805e+002
3.149610e+003,2.004091e+002
3.150574e+003,2.044617e+002
3.151539e+003,2.078480e+002
3.152503e+003,2.042607e+002
3.153467e+003,2.008928e+002
3.154431e+003,2.043517e+002
3.155396e+003,2.082289e+002
3.156360e+003,2.082543e+002
3.157324e+003,2.071084e+002
3.158288e+003,2.068382e+002
3.159252e+003,2.079055e+002
3.160217e+003,2.121410e+002
3.161181e+003,2.150536e+002
3.162145e+003,2.154386e+002
3.163109e+003,2.154373e+002
3.164074e+003,2.153326e+002
3.165038e+003,2.142569e+002
3.166002e+003,2.123701e+002
3.166966e+003,2.110108e+002
3.167931e+003,2.106314e+002
3.168895e+003,2.119160e+002
3.169859e+003,2.147577e+002
3.170823e+003,2.174247e+002
3.171788e+003,2.199061e+002
3.172752e+003,2.228535e+002
3.173716e+003,2.248533e+002
3.174680e+003,2.213775e+002
3.175645e+003,2.169373e+002
3.176609e+003,2.188591e+002
3.177573e+003,2.225684e+002
3.178537e+003,2.235773e+002
3.179501e+003,2.232192e+002
3.180466e+003,2.230267e+002
3.181430e+003,2.230322e+002
3.182394e+003,2.233694e+002
3.183358e+003,2.237693e+002
3.184323e+003,2.240829e+002
3.185287e+003,2.245205e+002
3.186251e+003,2.251306e+002
3.187215e+003,2.256925e+002
3.188179e+003,2.261912e+002
3.189144e+003,2.271694e+002
3.190108e+003,2.288356e+002
3.191072e+003,2.297669e+002
3.192036e+003,2.296132e+002
3.193001e+003,2.301717e+002
3.193965e+003,2.311604e+002
3.194929e+003,2.295066e+002
3.195893e+003,2.271149e+002
3.196858e+003,2.293407e+002
3.197822e+003,2.337303e+002
3.198786e+003,2.353480e+002
3.199750e+003,2.345291e+002
3.200715e+003,2.314015e+002
3.201679e+003,2.281633e+002
3.202643e+003,2.295503e+002
3.203607e+003,2.319458e+002
3.204572e+003,2.320814e+002
3.205536e+003,2.312716e+002
3.206500e+003,2.294438e+002
3.207464e+003,2.291273e+002
3.208428e+003,2.311201e+002
3.209393e+003,2.340238e+002
3.210357e+003,2.370657e+002
3.211321e+003,2.390072e+002
3.212285e+003,2.393866e+002
3.213250e+003,2.374072e+002
3.214214e+003,2.321429e+002
3.215178e+003,2.334846e+002
3.216142e+003,2.396845e+002
3.217106e+003,2.409982e+002
3.218071e+003,2.389043e+002
3.219035e+003,2.380138e+002
3.219999e+003,2.390547e+002
3.220963e+003,2.421712e+002
3.221928e+003,2.457579e+002
3.222892e+003,2.467210e+002
3.223856e+003,2.466869e+002
3.224820e+003,2.495713e+002
3.225785e+003,2.511700e+002
3.226749e+003,2.455462e+002
3.227713e+003,2.420203e+002
3.228677e+003,2.443382e+002
3.229642e+003,2.461655e+002
3.230606e+003,2.451207e+002
3.231570e+003,2.440268e+002
3.232534e+003,2.442180e+002
3.233499e+003,2.464602e+002
3.234463e+003,2.525129e+002
3.235427e+003,2.544268e+002
3.236391e+003,2.524015e+002
3.237355e+003,2.514337e+002
3.238320e+003,2.518170e+002
3.239284e+003,2.542003e+002
3.240248e+003,2.570228e+002
3.241212e+003,2.563844e+002
3.242177e+003,2.548980e+002
3.243141e+003,2.567490e+002
3.244105e+003,2.599960e+002
3.245069e+003,2.609155e+002
3.246033e+003,2.613561e+002
3.246998e+003,2.634435e+002
3.247962e+003,2.654167e+002
3.248926e+003,2.666327e+002
3.249890e+003,2.668695e+002
3.250855e+003,2.661397e+002
3.251819e+003,2.672902e+002
3.252783e+003,2.709726e+002
3.253747e+003,2.713401e+002
3.254712e+003,2.654233e+002
3.255676e+003,2.631977e+002
3.256640e+003,2.651454e+002
3.257604e+003,2.681702e+002
3.258569e+003,2.714911e+002
3.259533e+003,2.726751e+002
3.260497e+003,2.727802e+002
3.261461e+003,2.740897e+002
3.262426e+003,2.756859e+002
3.263390e+003,2.760749e+002
3.264354e+003,2.764658e+002
3.265318e+003,2.791010e+002
3.266282e+003,2.810528e+002
3.267247e+003,2.776744e+002
3.268211e+003,2.750970e+002
3.269175e+003,2.763481e+002
3.270139e+003,2.774674e+002
3.271104e+003,2.776770e+002
3.272068e+003,2.777951e+002
3.273032e+003,2.783868e+002
3.273996e+003,2.816866e+002
3.274960e+003,2.879597e+002
3.275925e+003,2.887718e+002
3.276889e+003,2.841247e+002
3.277853e+003,2.839854e+002
3.278817e+003,2.869940e+002
3.279782e+003,2.907629e+002
3.280746e+003,2.937302e+002
3.281710e+003,2.931269e+002
3.282674e+003,2.918396e+002
3.283639e+003,2.924626e+002
3.284603e+003,2.931407e+002
3.285567e+003,2.920469e+002
3.286531e+003,2.907500e+002
3.287496e+003,2.896780e+002
3.288460e+003,2.908431e+002
3.289424e+003,2.961784e+002
3.290388e+003,2.971629e+002
3.291353e+003,2.935080e+002
3.292317e+003,2.935943e+002
3.293281e+003,2.976429e+002
3.294245e+003,3.002156e+002
3.295209e+003,3.003377e+002
3.296174e+003,2.996246e+002
3.297138e+003,2.984910e+002
3.298102e+003,2.980374e+002
3.299066e+003,2.987573e+002
3.300031e+003,3.030455e+002
3.300995e+003,3.072026e+002
3.301959e+003,3.076990e+002
3.302923e+003,3.064868e+002
3.303887e+003,3.042462e+002
3.304852e+003,3.018423e+002
3.305816e+003,2.997954e+002
3.306780e+003,2.997768e+002
3.307744e+003,3.039839e+002
3.308709e+003,3.053001e+002
3.309673e+003,3.027396e+002
3.310637e+003,3.022666e+002
3.311601e+003,3.038001e+002
3.312566e+003,3.061127e+002
3.313530e+003,3.085038e+002
3.314494e+003,3.101203e+002
3.315458e+003,3.108502e+002
3.316423e+003,3.105472e+002
3.317387e+003,3.099626e+002
3.318351e+003,3.101053e+002
3.319315e+003,3.112266e+002
3.320280e+003,3.140555e+002
3.321244e+003,3.173993e+002
3.322208e+003,3.215919e+002
3.323172e+003,3.223383e+002
3.324136e+003,3.189285e+002
3.325101e+003,3.155553e+002
3.326065e+003,3.138243e+002
3.327029e+003,3.144332e+002
3.327993e+003,3.175535e+002
3.328958e+003,3.199983e+002
3.329922e+003,3.217731e+002
3.330886e+003,3.227603e+002
3.331850e+003,3.232652e+002
3.332814e+003,3.241474e+002
3.333779e+003,3.242782e+002
3.334743e+003,3.218577e+002
3.335707e+003,3.203907e+002
3.336671e+003,3.224082e+002
3.337636e+003,3.262102e+002
3.338600e+003,3.313999e+002
3.339564e+003,3.340519e+002
3.340528e+003,3.295536e+002
3.341493e+003,3.302450e+002
3.342457e+003,3.362488e+002
3.343421e+003,3.374662e+002
3.344385e+003,3.347313e+002
3.345350e+003,3.353348e+002
3.346314e+003,3.381659e+002
3.347278e+003,3.368117e+002
3.348242e+003,3.336296e+002
3.349207e+003,3.341814e+002
3.350171e+003,3.363807e+002
3.351135e+003,3.368902e+002
3.352099e+003,3.376596e+002
3.353063e+003,3.402946e+002
3.354028e+003,3.433105e+002
3.354992e+003,3.463355e+002
3.355956e+003,3.450495e+002
3.356920e+003,3.392725e+002
3.357885e+003,3.401922e+002
3.358849e+003,3.517906e+002
3.359813e+003,3.569829e+002
3.360777e+003,3.556134e+002
3.361741e+003,3.538504e+002
3.362706e+003,3.518166e+002
3.363670e+003,3.488213e+002
3.364634e+003,3.467601e+002
3.365598e+003,3.484525e+002
3.366563e+003,3.503398e+002
3.367527e+003,3.498946e+002
3.368491e+003,3.505121e+002
3.369455e+003,3.557595e+002
3.370420e+003,3.591566e+002
3.371384e+003,3.551807e+002
3.372348e+003,3.540166e+002
3.373312e+003,3.559533e+002
3.374277e+003,3.590022e+002
3.375241e+003,3.621466e+002
3.376205e+003,3.631119e+002
3.377169e+003,3.627085e+002
3.378134e+003,3.637908e+002
3.379098e+003,3.651718e+002
3.380062e+003,3.641706e+002
3.381026e+003,3.627571e+002
3.381990e+003,3.643409e+002
3.382955e+003,3.654953e+002
3.383919e+003,3.638784e+002
3.384883e+003,3.632166e+002
3.385847e+003,3.642603e+002
3.386812e+003,3.652769e+002
3.387776e+003,3.657328e+002
3.388740e+003,3.660650e+002
3.389704e+003,3.663331e+002
3.390668e+003,3.657846e+002
3.391633e+003,3.649151e+002
3.392597e+003,3.678627e+002
3.393561e+003,3.714806e+002
3.394525e+003,3.705448e+002
3.395490e+003,3.685211e+002
3.396454e+003,3.680385e+002
3.397418e+003,3.678659e+002
3.398382e+003,3.673344e+002
3.399347e+003,3.684586e+002
3.400311e+003,3.729121e+002
3.401275e+003,3.761065e+002
3.402239e+003,3.769302e+002
3.403204e+003,3.779420e+002
3.404168e+003,3.790522e+002
3.405132e+003,3.791485e+002
3.406096e+003,3.790810e+002
3.407061e+003,3.818059e+002
3.408025e+003,3.838796e+002
3.408989e+003,3.809650e+002
3.409953e+003,3.771598e+002
3.410917e+003,3.774844e+002
3.411882e+003,3.789191e+002
3.412846e+003,3.794680e+002
3.413810e+003,3.803208e+002
3.414774e+003,3.816325e+002
3.415739e+003,3.836185e+002
3.416703e+003,3.859844e+002
3.417667e+003,3.878584e+002
3.418631e+003,3.886501e+002
3.419595e+003,3.866830e+002
3.420560e+003,3.839786e+002
3.421524e+003,3.867074e+002
3.422488e+003,3.910084e+002
3.423452e+003,3.904940e+002
3.424417e+003,3.888583e+002
3.425381e+003,3.878972e+002
3.426345e+003,3.875123e+002
3.427309e+003,3.877083e+002
3.428274e+003,3.894336e+002
3.429238e+003,3.926852e+002
3.430202e+003,3.947964e+002
3.431166e+003,3.951905e+002
3.432131e+003,3.947656e+002
3.433095e+003,3.938308e+002
3.434059e+003,3.934657e+002
3.435023e+003,3.938350e+002
3.435988e+003,3.961685e+002
3.436952e+003,3.976558e+002
3.437916e+003,3.965417e+002
3.438880e+003,3.948510e+002
3.439844e+003,3.938034e+002
3.440809e+003,3.946244e+002
3.441773e+003,3.988857e+002
3.442737e+003,4.012326e+002
3.443701e+003,4.013848e+002
3.444666e+003,4.002359e+002
3.445630e+003,3.991020e+002
3.446594e+003,4.023010e+002
3.447558e+003,4.064795e+002
3.448522e+003,4.063056e+002
3.449487e+003,4.048858e+002
3.450451e+003,4.051848e+002
3.451415e+003,4.063568e+002
3.452379e+003,4.078744e+002
3.453344e+003,4.095860e+002
3.454308e+003,4.120834e+002
3.455272e+003,4.102258e+002
3.456236e+003,4.054123e+002
3.457201e+003,4.091349e+002
3.458165e+003,4.187109e+002
3.459129e+003,4.226089e+002
3.460093e+003,4.220471e+002
3.461058e+003,4.201586e+002
3.462022e+003,4.184429e+002
3.462986e+003,4.198401e+002
3.463950e+003,4.218170e+002
3.464915e+003,4.226570e+002
3.465879e+003,4.238466e+002
3.466843e+003,4.255996e+002
3.467807e+003,4.275260e+002
3.468771e+003,4.293653e+002
3.469736e+003,4.301754e+002
3.470700e+003,4.303683e+002
3.471664e+003,4.328353e+002
3.472628e+003,4.363151e+002
3.473593e+003,4.371390e+002
3.474557e+003,4.364329e+002
3.475521e+003,4.336689e+002
3.476485e+003,4.332515e+002
3.477449e+003,4.369374e+002
3.478414e+003,4.395178e+002
3.479378e+003,4.394688e+002
3.480342e+003,4.410717e+002
3.481306e+003,4.455672e+002
3.482271e+003,4.456385e+002
3.483235e+003,4.419049e+002
3.484199e+003,4.418529e+002
3.485163e+003,4.442539e+002
3.486128e+003,4.484010e+002
3.487092e+003,4.521774e+002
3.488056e+003,4.543372e+002
3.489020e+003,4.552030e+002
3.489985e+003,4.549992e+002
3.490949e+003,4.552320e+002
3.491913e+003,4.568385e+002
3.492877e+003,4.575503e+002
3.493842e+003,4.571748e+002
3.494806e+003,4.579384e+002
3.495770e+003,4.593279e+002
3.496734e+003,4.592874e+002
3.497698e+003,4.599957e+002
3.498663e+003,4.645835e+002
3.499627e+003,4.688938e+002
3.500591e+003,0.000000e+000
