9.974011e+001,2.846009e+002
1.007043e+002,2.851457e+002
1.016686e+002,2.874655e+002
1.026328e+002,2.915939e+002
1.035970e+002,2.935451e+002
1.045613e+002,2.939010e+002
1.055255e+002,2.928071e+002
1.064897e+002,2.902718e+002
1.074540e+002,2.835512e+002
1.084182e+002,2.779712e+002
1.093824e+002,2.740926e+002
1.103467e+002,2.714848e+002
1.113109e+002,2.684288e+002
1.122751e+002,2.649537e+002
1.132394e+002,2.628597e+002
1.142036e+002,2.623075e+002
1.151678e+002,2.630509e+002
1.161321e+002,2.640158e+002
1.170963e+002,2.641070e+002
1.180605e+002,2.632000e+002
1.190248e+002,2.613706e+002
1.199890e+002,2.588780e+002
1.209532e+002,2.565992e+002
1.219175e+002,2.550226e+002
1.228817e+002,2.542539e+002
1.238459e+002,2.538993e+002
1.248102e+002,2.532480e+002
1.257744e+002,2.515940e+002
1.267386e+002,2.499171e+002
1.277029e+002,2.475514e+002
1.286671e+002,2.445274e+002
1.296313e+002,2.416541e+002
1.305956e+002,2.405017e+002
1.315598e+002,2.396836e+002
1.325240e+002,2.390296e+002
1.334883e+002,2.384879e+002
1.344525e+002,2.381710e+002
1.354167e+002,2.374974e+002
1.363810e+002,2.364326e+002
1.373452e+002,2.352070e+002
1.383094e+002,2.340746e+002
1.392737e+002,2.332230e+002
1.402379e+002,2.317972e+002
1.412021e+002,2.292024e+002
1.421664e+002,2.261759e+002
1.431306e+002,2.239716e+002
1.440948e+002,2.243203e+002
1.450591e+002,2.242723e+002
1.460233e+002,2.224539e+002
1.469875e+002,2.194499e+002
1.479518e+002,2.171394e+002
1.489160e+002,2.174825e+002
1.498802e+002,2.180902e+002
1.508445e+002,2.192682e+002
1.518087e+002,2.210500e+002
1.527729e+002,2.231736e+002
1.537372e+002,2.236564e+002
1.547014e+002,2.221106e+002
1.556656e+002,2.180569e+002
1.566299e+002,2.113430e+002
1.575941e+002,2.021375e+002
1.585583e+002,1.974444e+002
1.595226e+002,1.980644e+002
1.604868e+002,2.009242e+002
1.614510e+002,2.030338e+002
1.624153e+002,2.032727e+002
1.633795e+002,2.023520e+002
1.643438e+002,2.010906e+002
1.653080e+002,1.996406e+002
1.662722e+002,1.977858e+002
1.672365e+002,1.935273e+002
1.682007e+002,1.905621e+002
1.691649e+002,1.921796e+002
1.701292e+002,1.974326e+002
1.710934e+002,2.033082e+002
1.720576e+002,2.026522e+002
1.730219e+002,1.983618e+002
1.739861e+002,1.942200e+002
1.749503e+002,1.912326e+002
1.759146e+002,1.888690e+002
1.768788e+002,1.864949e+002
1.778430e+002,1.864826e+002
1.788073e+002,1.863589e+002
1.797715e+002,1.842510e+002
1.807357e+002,1.785844e+002
1.817000e+002,1.765028e+002
1.826642e+002,1.784111e+002
1.836284e+002,1.812784e+002
1.845927e+002,1.829466e+002
1.855569e+002,1.821676e+002
1.865211e+002,1.799327e+002
1.874854e+002,1.782979e+002
1.884496e+002,1.772779e+002
1.894138e+002,1.765070e+002
1.903781e+002,1.750334e+002
1.913423e+002,1.735381e+002
1.923065e+002,1.732568e+002
1.932708e+002,1.737678e+002
1.942350e+002,1.741614e+002
1.951992e+002,1.725044e+002
1.961635e+002,1.678325e+002
1.971277e+002,1.649780e+002
1.980919e+002,1.658654e+002
1.990562e+002,1.704398e+002
2.000204e+002,1.733211e+002
2.009846e+002,1.721928e+002
2.019489e+002,1.704263e+002
2.029131e+002,1.691506e+002
2.038773e+002,1.688287e+002
2.048416e+002,1.686864e+002
2.058058e+002,1.673823e+002
2.067700e+002,1.659635e+002
2.077343e+002,1.653454e+002
2.086985e+002,1.661811e+002
2.096627e+002,1.679280e+002
2.106270e+002,1.685390e+002
2.115912e+002,1.682713e+002
2.125554e+002,1.676923e+002
2.135197e+002,1.674279e+002
2.144839e+002,1.675910e+002
2.154481e+002,1.664916e+002
2.164124e+002,1.636260e+002
2.173766e+002,1.603775e+002
2.183408e+002,1.588481e+002
2.193051e+002,1.610012e+002
2.202693e+002,1.624931e+002
2.212335e+002,1.616440e+002
2.221978e+002,1.591687e+002
2.231620e+002,1.569383e+002
2.241262e+002,1.584507e+002
2.250904e+002,1.608499e+002
2.260547e+002,1.610981e+002
2.270189e+002,1.587652e+002
2.279831e+002,1.549327e+002
2.289474e+002,1.539688e+002
2.299116e+002,1.556985e+002
2.308758e+002,1.574028e+002
2.318401e+002,1.582259e+002
2.328043e+002,1.582782e+002
2.337685e+002,1.591654e+002
2.347328e+002,1.600356e+002
2.356970e+002,1.601715e+002
2.366612e+002,1.593879e+002
2.376255e+002,1.578608e+002
2.385897e+002,1.568970e+002
2.395539e+002,1.570198e+002
2.405182e+002,1.577174e+002
2.414824e+002,1.590842e+002
2.424466e+002,1.613399e+002
2.434109e+002,1.630191e+002
2.443751e+002,1.612348e+002
2.453393e+002,1.574877e+002
2.463036e+002,1.539589e+002
2.472678e+002,1.530930e+002
2.482320e+002,1.555573e+002
2.491963e+002,1.568322e+002
2.501605e+002,1.560219e+002
2.511247e+002,1.548116e+002
2.520890e+002,1.561107e+002
2.530532e+002,1.630973e+002
2.540174e+002,1.682024e+002
2.549817e+002,1.714993e+002
2.559459e+002,1.734608e+002
2.569102e+002,1.745576e+002
2.578744e+002,1.725751e+002
2.588386e+002,1.699118e+002
2.598029e+002,1.684966e+002
2.607671e+002,1.685014e+002
2.617313e+002,1.694040e+002
2.626956e+002,1.707207e+002
2.636598e+002,1.721131e+002
2.646240e+002,1.722007e+002
2.655883e+002,1.704695e+002
2.665525e+002,1.671681e+002
2.675167e+002,1.651056e+002
2.684810e+002,1.648950e+002
2.694452e+002,1.661694e+002
2.704094e+002,1.699409e+002
2.713737e+002,1.763737e+002
2.723379e+002,1.801359e+002
2.733021e+002,1.774812e+002
2.742664e+002,1.745973e+002
2.752306e+002,1.743982e+002
2.761948e+002,1.777574e+002
2.771591e+002,1.804529e+002
2.781233e+002,1.782930e+002
2.790875e+002,1.753553e+002
2.800518e+002,1.737982e+002
2.810160e+002,1.747442e+002
2.819802e+002,1.774617e+002
2.829445e+002,1.809431e+002
2.839087e+002,1.847863e+002
2.848729e+002,1.872774e+002
2.858372e+002,1.869395e+002
2.868014e+002,1.828801e+002
2.877656e+002,1.812771e+002
2.887299e+002,1.820082e+002
2.896941e+002,1.834546e+002
2.906583e+002,1.849856e+002
2.916226e+002,1.877764e+002
2.925868e+002,1.890854e+002
2.935510e+002,1.871762e+002
2.945153e+002,1.844680e+002
2.954795e+002,1.830925e+002
2.964437e+002,1.845529e+002
2.974080e+002,1.863870e+002
2.983722e+002,1.863923e+002
2.993364e+002,1.856565e+002
3.003007e+002,1.856519e+002
3.012649e+002,1.880557e+002
3.022291e+002,1.924682e+002
3.031934e+002,1.937516e+002
3.041576e+002,1.913751e+002
3.051218e+002,1.878054e+002
3.060861e+002,1.871454e+002
3.070503e+002,1.923832e+002
3.080145e+002,1.945013e+002
3.089788e+002,1.925869e+002
3.099430e+002,1.888272e+002
3.109072e+002,1.864091e+002
3.118715e+002,1.871521e+002
3.128357e+002,1.895496e+002
3.137999e+002,1.923444e+002
3.147642e+002,1.948611e+002
3.157284e+002,1.968108e+002
3.166926e+002,1.987823e+002
3.176569e+002,2.012116e+002
3.186211e+002,2.033789e+002
3.195853e+002,2.050788e+002
3.205496e+002,2.063381e+002
3.215138e+002,2.074953e+002
3.224780e+002,2.083977e+002
3.234423e+002,2.081265e+002
3.244065e+002,2.058771e+002
3.253707e+002,2.023740e+002
3.263350e+002,2.002152e+002
3.272992e+002,2.019926e+002
3.282634e+002,2.039061e+002
3.292277e+002,2.052347e+002
3.301919e+002,2.059513e+002
3.311561e+002,2.065887e+002
3.321204e+002,2.073937e+002
3.330846e+002,2.078568e+002
3.340488e+002,2.076741e+002
3.350131e+002,2.068949e+002
3.359773e+002,2.058784e+002
3.369415e+002,2.058340e+002
3.379058e+002,2.067342e+002
3.388700e+002,2.066435e+002
3.398342e+002,2.048601e+002
3.407985e+002,2.019149e+002
3.417627e+002,2.012509e+002
3.427269e+002,2.036804e+002
3.436912e+002,2.057740e+002
3.446554e+002,2.072349e+002
3.456196e+002,2.083940e+002
3.465839e+002,2.100220e+002
3.475481e+002,2.129151e+002
3.485123e+002,2.162294e+002
3.494765e+002,2.198351e+002
3.504408e+002,2.230650e+002
3.514050e+002,2.247485e+002
3.523692e+002,2.220706e+002
3.533335e+002,2.183972e+002
3.542977e+002,2.170095e+002
3.552619e+002,2.189421e+002
3.562262e+002,2.235874e+002
3.571904e+002,2.276213e+002
3.581546e+002,2.307479e+002
3.591189e+002,2.321405e+002
3.600831e+002,2.303767e+002
3.610473e+002,2.254838e+002
3.620116e+002,2.220246e+002
3.629758e+002,2.220142e+002
3.639400e+002,2.226944e+002
3.649043e+002,2.240191e+002
3.658685e+002,2.256062e+002
3.668327e+002,2.262764e+002
3.677970e+002,2.226299e+002
3.687612e+002,2.196987e+002
3.697254e+002,2.206645e+002
3.706897e+002,2.258089e+002
3.716539e+002,2.327818e+002
3.726181e+002,2.358593e+002
3.735824e+002,2.354735e+002
3.745466e+002,2.342923e+002
3.755108e+002,2.332159e+002
3.764751e+002,2.326279e+002
3.774393e+002,2.332865e+002
3.784035e+002,2.370688e+002
3.793678e+002,2.390818e+002
3.803320e+002,2.375815e+002
3.812962e+002,2.332868e+002
3.822605e+002,2.301959e+002
3.832247e+002,2.305531e+002
3.841889e+002,2.316686e+002
3.851532e+002,2.328384e+002
3.861174e+002,2.338263e+002
3.870816e+002,2.348168e+002
3.880459e+002,2.364169e+002
3.890101e+002,2.380834e+002
3.899743e+002,2.394798e+002
3.909386e+002,2.406347e+002
3.919028e+002,2.415532e+002
3.928670e+002,2.414893e+002
3.938313e+002,2.389329e+002
3.947955e+002,2.374279e+002
3.957597e+002,2.390918e+002
3.967240e+002,2.431275e+002
3.976882e+002,2.447334e+002
3.986524e+002,2.397508e+002
3.996167e+002,2.366482e+002
4.005809e+002,2.370065e+002
4.015451e+002,2.397254e+002
4.025094e+002,2.420306e+002
4.034736e+002,2.421843e+002
4.044378e+002,2.424480e+002
4.054021e+002,2.435943e+002
4.063663e+002,2.454051e+002
4.073305e+002,2.473642e+002
4.082948e+002,2.489105e+002
4.092590e+002,2.500275e+002
4.102232e+002,2.510463e+002
4.111875e+002,2.519087e+002
4.121517e+002,2.524572e+002
4.131159e+002,2.525521e+002
4.140802e+002,2.532950e+002
4.150444e+002,2.547408e+002
4.160086e+002,2.564418e+002
4.169729e+002,2.583704e+002
4.179371e+002,2.604703e+002
4.189013e+002,2.617289e+002
4.198656e+002,2.615789e+002
4.208298e+002,2.613543e+002
4.217940e+002,2.607988e+002
4.227583e+002,2.592648e+002
4.237225e+002,2.558862e+002
4.246867e+002,2.529512e+002
4.256510e+002,2.530423e+002
4.266152e+002,2.553130e+002
4.275794e+002,2.582865e+002
4.285437e+002,2.604619e+002
4.295079e+002,2.617885e+002
4.304721e+002,2.625950e+002
4.314364e+002,2.626212e+002
4.324006e+002,2.633709e+002
4.333648e+002,2.664519e+002
4.343291e+002,2.729764e+002
4.352933e+002,2.766562e+002
4.362575e+002,2.759167e+002
4.372218e+002,2.732714e+002
4.381860e+002,2.704111e+002
4.391502e+002,2.681494e+002
4.401145e+002,2.665021e+002
4.410787e+002,2.657155e+002
4.420429e+002,2.660391e+002
4.430072e+002,2.674131e+002
4.439714e+002,2.695046e+002
4.449356e+002,2.716693e+002
4.458999e+002,2.733185e+002
4.468641e+002,2.751633e+002
4.478283e+002,2.762184e+002
4.487926e+002,2.757754e+002
4.497568e+002,2.739007e+002
4.507210e+002,2.743395e+002
4.516853e+002,2.764648e+002
4.526495e+002,2.786810e+002
4.536137e+002,2.816165e+002
4.545780e+002,2.852655e+002
4.555422e+002,2.874233e+002
4.565064e+002,2.849275e+002
4.574707e+002,2.817789e+002
4.584349e+002,2.791218e+002
4.593991e+002,2.771829e+002
4.603634e+002,2.756600e+002
4.613276e+002,2.749731e+002
4.622918e+002,2.754375e+002
4.632561e+002,2.761523e+002
4.642203e+002,2.770167e+002
4.651845e+002,2.780598e+002
4.661488e+002,2.792741e+002
4.671130e+002,2.808231e+002
4.680772e+002,2.809985e+002
4.690415e+002,2.793118e+002
4.700057e+002,2.769451e+002
4.709699e+002,2.758315e+002
4.719342e+002,2.773571e+002
4.728984e+002,2.787663e+002
4.738626e+002,2.788052e+002
4.748269e+002,2.777078e+002
4.757911e+002,2.758319e+002
4.767553e+002,2.734392e+002
4.777196e+002,2.718506e+002
4.786838e+002,2.731074e+002
4.796480e+002,2.761744e+002
4.806123e+002,2.788574e+002
4.815765e+002,2.792996e+002
4.825407e+002,2.779622e+002
4.835050e+002,2.756501e+002
4.844692e+002,2.707453e+002
4.854334e+002,2.665923e+002
4.863977e+002,2.653689e+002
4.873619e+002,2.671465e+002
4.883261e+002,2.673664e+002
4.892904e+002,2.662704e+002
4.902546e+002,2.652610e+002
4.912188e+002,2.640070e+002
4.921831e+002,2.622479e+002
4.931473e+002,2.605985e+002
4.941115e+002,2.612366e+002
4.950758e+002,2.631639e+002
4.960400e+002,2.658293e+002
4.970042e+002,2.691826e+002
4.979685e+002,2.730883e+002
4.989327e+002,2.759579e+002
4.998969e+002,2.767739e+002
5.008612e+002,2.755188e+002
5.018254e+002,2.702299e+002
5.027896e+002,2.625023e+002
5.037539e+002,2.578083e+002
5.047181e+002,2.617539e+002
5.056823e+002,2.649727e+002
5.066466e+002,2.641101e+002
5.076108e+002,2.613154e+002
5.085750e+002,2.601202e+002
5.095393e+002,2.631770e+002
5.105035e+002,2.670218e+002
5.114677e+002,2.690103e+002
5.124320e+002,2.699079e+002
5.133962e+002,2.701522e+002
5.143605e+002,2.697920e+002
5.153247e+002,2.682480e+002
5.162889e+002,2.682569e+002
5.172532e+002,2.707242e+002
5.182174e+002,2.741387e+002
5.191816e+002,2.770769e+002
5.201459e+002,2.789127e+002
5.211101e+002,2.820379e+002
5.220743e+002,2.873850e+002
5.230386e+002,2.923812e+002
5.240028e+002,2.967587e+002
5.249670e+002,3.010505e+002
5.259313e+002,3.061359e+002
5.268955e+002,3.107810e+002
5.278597e+002,3.147049e+002
5.288240e+002,3.186497e+002
5.297882e+002,3.227509e+002
5.307524e+002,3.266228e+002
5.317167e+002,3.293603e+002
5.326809e+002,3.320457e+002
5.336451e+002,3.368871e+002
5.346094e+002,3.435244e+002
5.355736e+002,3.500791e+002
5.365378e+002,3.541615e+002
5.375021e+002,3.555056e+002
5.384663e+002,3.583733e+002
5.394305e+002,3.634795e+002
5.403948e+002,3.693866e+002
5.413590e+002,3.744302e+002
5.423232e+002,3.773564e+002
5.432875e+002,3.791590e+002
5.442517e+002,3.825000e+002
5.452159e+002,3.875281e+002
5.461802e+002,3.934765e+002
5.471444e+002,3.991680e+002
5.481086e+002,4.033179e+002
5.490729e+002,4.051739e+002
5.500371e+002,4.066327e+002
5.510013e+002,4.074367e+002
5.519656e+002,4.067653e+002
5.529298e+002,4.049912e+002
5.538940e+002,4.056637e+002
5.548583e+002,4.101191e+002
5.558225e+002,4.124708e+002
5.567867e+002,4.119577e+002
5.577510e+002,4.097037e+002
5.587152e+002,4.078722e+002
5.596794e+002,4.086530e+002
5.606437e+002,4.096206e+002
5.616079e+002,4.079574e+002
5.625721e+002,4.047092e+002
5.635364e+002,4.016265e+002
5.645006e+002,4.001599e+002
5.654648e+002,3.992000e+002
5.664291e+002,3.956261e+002
5.673933e+002,3.912330e+002
5.683575e+002,3.883868e+002
5.693218e+002,3.879423e+002
5.702860e+002,3.887362e+002
5.712502e+002,3.870706e+002
5.722145e+002,3.816386e+002
5.731787e+002,3.761068e+002
5.741429e+002,3.730785e+002
5.751072e+002,3.726527e+002
5.760714e+002,3.720094e+002
5.770356e+002,3.678105e+002
5.779999e+002,3.647632e+002
5.789641e+002,3.649115e+002
5.799283e+002,3.670148e+002
5.808926e+002,3.689214e+002
5.818568e+002,3.688128e+002
5.828210e+002,3.661670e+002
5.837853e+002,3.609636e+002
5.847495e+002,3.535815e+002
5.857137e+002,3.468676e+002
5.866780e+002,3.439222e+002
5.876422e+002,3.463353e+002
5.886064e+002,3.458535e+002
5.895707e+002,3.405569e+002
5.905349e+002,3.355577e+002
5.914991e+002,3.333267e+002
5.924634e+002,3.336296e+002
5.934276e+002,3.331837e+002
5.943918e+002,3.287494e+002
5.953560e+002,3.248248e+002
5.963203e+002,3.239488e+002
5.972845e+002,3.253958e+002
5.982487e+002,3.267728e+002
5.992130e+002,3.256095e+002
6.001772e+002,3.227841e+002
6.011414e+002,3.186031e+002
6.021057e+002,3.113274e+002
6.030699e+002,3.025477e+002
6.040341e+002,2.949529e+002
6.049984e+002,2.896391e+002
6.059626e+002,2.856695e+002
6.069268e+002,2.856493e+002
6.078911e+002,2.866392e+002
6.088553e+002,2.860728e+002
6.098195e+002,2.828184e+002
6.107838e+002,2.784062e+002
6.117480e+002,2.744393e+002
6.127122e+002,2.711559e+002
6.136765e+002,2.682110e+002
6.146407e+002,2.650890e+002
6.156049e+002,2.612378e+002
6.165692e+002,2.562383e+002
6.175334e+002,2.508407e+002
6.184976e+002,2.477946e+002
6.194619e+002,2.480521e+002
6.204261e+002,2.492301e+002
6.213903e+002,2.476810e+002
6.223546e+002,2.410449e+002
6.233188e+002,2.361844e+002
6.242830e+002,2.336671e+002
6.252473e+002,2.314382e+002
6.262115e+002,2.284066e+002
6.271757e+002,2.246331e+002
6.281400e+002,2.214733e+002
6.291042e+002,2.217822e+002
6.300684e+002,2.218138e+002
6.310327e+002,2.183439e+002
6.319969e+002,2.119725e+002
6.329611e+002,2.060013e+002
6.339254e+002,2.049883e+002
6.348896e+002,2.081474e+002
6.358538e+002,2.085483e+002
6.368181e+002,2.065128e+002
6.377823e+002,2.030844e+002
6.387465e+002,1.986124e+002
6.397108e+002,1.917859e+002
6.406750e+002,1.890741e+002
6.416392e+002,1.930914e+002
6.426035e+002,1.961851e+002
6.435677e+002,1.944243e+002
6.445319e+002,1.880102e+002
6.454962e+002,1.813211e+002
6.464604e+002,1.775175e+002
6.474246e+002,1.749673e+002
6.483889e+002,1.720826e+002
6.493531e+002,1.686053e+002
6.503173e+002,1.653220e+002
6.512816e+002,1.637151e+002
6.522458e+002,1.639197e+002
6.532100e+002,1.611017e+002
6.541743e+002,1.547814e+002
6.551385e+002,1.487959e+002
6.561027e+002,1.462085e+002
6.570670e+002,1.472440e+002
6.580312e+002,1.475605e+002
6.589954e+002,1.460027e+002
6.599597e+002,1.433257e+002
6.609239e+002,1.400619e+002
6.618881e+002,1.370028e+002
6.628524e+002,1.351559e+002
6.638166e+002,1.357513e+002
6.647808e+002,1.367683e+002
6.657451e+002,1.358409e+002
6.667093e+002,1.329370e+002
6.676735e+002,1.286242e+002
6.686378e+002,1.235971e+002
6.696020e+002,1.180367e+002
6.705662e+002,1.147453e+002
6.715305e+002,1.140999e+002
6.724947e+002,1.134109e+002
6.734589e+002,1.116824e+002
6.744232e+002,1.094680e+002
6.753874e+002,1.083109e+002
6.763516e+002,1.088764e+002
6.773159e+002,1.094775e+002
6.782801e+002,1.098048e+002
6.792443e+002,1.090848e+002
6.802086e+002,1.060380e+002
6.811728e+002,9.929291e+001
6.821370e+002,9.209695e+001
6.831013e+002,9.026959e+001
6.840655e+002,9.205643e+001
6.850297e+002,9.345676e+001
6.859940e+002,9.176974e+001
6.869582e+002,8.747247e+001
6.879224e+002,8.578635e+001
6.888867e+002,8.890118e+001
6.898509e+002,8.922055e+001
6.908151e+002,8.373508e+001
6.917794e+002,7.557413e+001
6.927436e+002,7.124945e+001
6.937078e+002,7.378665e+001
6.946721e+002,7.577240e+001
6.956363e+002,7.496637e+001
6.966005e+002,7.313913e+001
6.975648e+002,7.133997e+001
6.985290e+002,6.970270e+001
6.994932e+002,6.770822e+001
7.004575e+002,6.543719e+001
7.014217e+002,6.336633e+001
7.023859e+002,6.193689e+001
7.033502e+002,6.154742e+001
7.043144e+002,6.210764e+001
7.052786e+002,6.294452e+001
7.062429e+002,6.393723e+001
7.072071e+002,6.304306e+001
7.081713e+002,5.966580e+001
7.091356e+002,5.614102e+001
7.100998e+002,5.428378e+001
7.110640e+002,5.415359e+001
7.120283e+002,5.347974e+001
7.129925e+002,4.984430e+001
7.139567e+002,4.655057e+001
7.149210e+002,4.611108e+001
7.158852e+002,4.822708e+001
7.168494e+002,5.075964e+001
7.178137e+002,5.135611e+001
7.187779e+002,5.022977e+001
7.197421e+002,4.806894e+001
7.207064e+002,4.439401e+001
7.216706e+002,4.062714e+001
7.226348e+002,3.814108e+001
7.235991e+002,3.724701e+001
7.245633e+002,3.860449e+001
7.255275e+002,4.438147e+001
7.264918e+002,4.778391e+001
7.274560e+002,4.641953e+001
7.284202e+002,4.180038e+001
7.293845e+002,3.731091e+001
7.303487e+002,3.368201e+001
7.313129e+002,3.184064e+001
7.322772e+002,3.286383e+001
7.332414e+002,3.567007e+001
7.342056e+002,3.913898e+001
7.351699e+002,4.260297e+001
7.361341e+002,4.597351e+001
7.370983e+002,4.717859e+001
7.380626e+002,4.494037e+001
7.390268e+002,4.256564e+001
7.399910e+002,4.216583e+001
7.409553e+002,4.312781e+001
7.419195e+002,4.231689e+001
7.428837e+002,3.606781e+001
7.438480e+002,3.270929e+001
7.448122e+002,3.775052e+001
7.457764e+002,4.486530e+001
7.467407e+002,4.828241e+001
7.477049e+002,4.652783e+001
7.486691e+002,4.433240e+001
7.496334e+002,4.663278e+001
7.505976e+002,5.039050e+001
7.515618e+002,5.396286e+001
7.525261e+002,5.703641e+001
7.534903e+002,5.885950e+001
7.544545e+002,5.824362e+001
7.554188e+002,5.521716e+001
7.563830e+002,5.414487e+001
7.573472e+002,5.397974e+001
7.583115e+002,5.357285e+001
7.592757e+002,5.261148e+001
7.602399e+002,5.202142e+001
7.612042e+002,5.401807e+001
7.621684e+002,6.160660e+001
7.631326e+002,6.711197e+001
7.640969e+002,6.607968e+001
7.650611e+002,6.138458e+001
7.660253e+002,5.824771e+001
7.669896e+002,6.068890e+001
7.679538e+002,6.717117e+001
7.689180e+002,7.062848e+001
7.698823e+002,7.026605e+001
7.708465e+002,6.920520e+001
7.718107e+002,6.987451e+001
7.727750e+002,7.227060e+001
7.737392e+002,7.343469e+001
7.747034e+002,7.147079e+001
7.756677e+002,7.121561e+001
7.766319e+002,7.335770e+001
7.775961e+002,7.597046e+001
7.785604e+002,7.741565e+001
7.795246e+002,7.730917e+001
7.804888e+002,7.677689e+001
7.814531e+002,7.672342e+001
7.824173e+002,7.671103e+001
7.833815e+002,7.659543e+001
7.843458e+002,7.666681e+001
7.853100e+002,7.733115e+001
7.862742e+002,7.876291e+001
7.872385e+002,8.023145e+001
7.882027e+002,7.961087e+001
7.891669e+002,7.640634e+001
7.901312e+002,7.214026e+001
7.910954e+002,6.811728e+001
7.920596e+002,6.512064e+001
7.930239e+002,6.344205e+001
7.939881e+002,6.273996e+001
7.949523e+002,6.274252e+001
7.959166e+002,6.349835e+001
7.968808e+002,6.443115e+001
7.978450e+002,6.476035e+001
7.988093e+002,6.415555e+001
7.997735e+002,6.370218e+001
8.007377e+002,6.658643e+001
8.017020e+002,7.082693e+001
8.026662e+002,7.264221e+001
8.036304e+002,7.079437e+001
8.045947e+002,6.686322e+001
8.055589e+002,6.398352e+001
8.065231e+002,6.224368e+001
8.074874e+002,6.124634e+001
8.084516e+002,6.257339e+001
8.094158e+002,6.308365e+001
8.103801e+002,6.083212e+001
8.113443e+002,5.662448e+001
8.123085e+002,5.392633e+001
8.132728e+002,5.399887e+001
8.142370e+002,5.437018e+001
8.152012e+002,5.355200e+001
8.161655e+002,5.120618e+001
8.171297e+002,4.795319e+001
8.180939e+002,4.492368e+001
8.190582e+002,4.321918e+001
8.200224e+002,4.293600e+001
8.209866e+002,4.340732e+001
8.219509e+002,4.311270e+001
8.229151e+002,3.999710e+001
8.238793e+002,3.565100e+001
8.248436e+002,3.465338e+001
8.258078e+002,4.003995e+001
8.267720e+002,4.235373e+001
8.277363e+002,3.758127e+001
8.287005e+002,3.116409e+001
8.296647e+002,2.688727e+001
8.306290e+002,2.572916e+001
8.315932e+002,2.637802e+001
8.325574e+002,2.806259e+001
8.335217e+002,2.967151e+001
8.344859e+002,2.870120e+001
8.354501e+002,2.518701e+001
8.364144e+002,2.152225e+001
8.373786e+002,2.009241e+001
8.383428e+002,2.111237e+001
8.393071e+002,2.072714e+001
8.402713e+002,1.708328e+001
8.412355e+002,1.452972e+001
8.421998e+002,1.398526e+001
8.431640e+002,1.436508e+001
8.441282e+002,1.407611e+001
8.450925e+002,1.249063e+001
8.460567e+002,1.129593e+001
8.470209e+002,1.186108e+001
8.479852e+002,1.290311e+001
8.489494e+002,1.391727e+001
8.499136e+002,1.477048e+001
8.508779e+002,1.533676e+001
8.518421e+002,1.524371e+001
8.528063e+002,1.431357e+001
8.537706e+002,1.296259e+001
8.547348e+002,1.066687e+001
8.556990e+002,9.581543e+000
8.566633e+002,1.184222e+001
8.576275e+002,1.658859e+001
8.585917e+002,1.852277e+001
8.595560e+002,1.587997e+001
8.605202e+002,1.277414e+001
8.614844e+002,9.185089e+000
8.624487e+002,6.574738e+000
8.634129e+002,6.492065e+000
8.643771e+002,8.898468e+000
8.653414e+002,1.096985e+001
8.663056e+002,9.337341e+000
8.672698e+002,6.984558e+000
8.682341e+002,7.287109e+000
8.691983e+002,1.001309e+001
8.701625e+002,1.372192e+001
8.711268e+002,1.731107e+001
8.720910e+002,2.084024e+001
8.730552e+002,2.066769e+001
8.740195e+002,1.740295e+001
8.749837e+002,1.497064e+001
8.759479e+002,1.318820e+001
8.769122e+002,1.170016e+001
8.778764e+002,1.030008e+001
8.788406e+002,8.553375e+000
8.798049e+002,6.855316e+000
8.807691e+002,7.148926e+000
8.817333e+002,8.850800e+000
8.826976e+002,1.100711e+001
8.836618e+002,1.313370e+001
8.846260e+002,1.511423e+001
8.855903e+002,1.678586e+001
8.865545e+002,1.785822e+001
8.875187e+002,1.787607e+001
8.884830e+002,1.612558e+001
8.894472e+002,1.469278e+001
8.904114e+002,1.512943e+001
8.913757e+002,1.726230e+001
8.923399e+002,1.921887e+001
8.933041e+002,1.984021e+001
8.942684e+002,1.936514e+001
8.952326e+002,1.767825e+001
8.961968e+002,1.593686e+001
8.971611e+002,1.599487e+001
8.981253e+002,1.845920e+001
8.990895e+002,2.149792e+001
9.000538e+002,2.133203e+001
9.010180e+002,1.828534e+001
9.019822e+002,1.710834e+001
9.029465e+002,1.850122e+001
9.039107e+002,2.081204e+001
9.048749e+002,2.232437e+001
9.058392e+002,2.273785e+001
9.068034e+002,2.327411e+001
9.077676e+002,2.447073e+001
9.087319e+002,2.586697e+001
9.096961e+002,2.777979e+001
9.106603e+002,3.032245e+001
9.116246e+002,3.315738e+001
9.125888e+002,3.577780e+001
9.135530e+002,3.824878e+001
9.145173e+002,4.122992e+001
9.154815e+002,4.361667e+001
9.164457e+002,4.489059e+001
9.174100e+002,4.559436e+001
9.183742e+002,4.584891e+001
9.193384e+002,4.504355e+001
9.203027e+002,4.264474e+001
9.212669e+002,4.356259e+001
9.222311e+002,4.815930e+001
9.231954e+002,5.166626e+001
9.241596e+002,5.423883e+001
9.251238e+002,5.649884e+001
9.260881e+002,5.851675e+001
9.270523e+002,5.994562e+001
9.280165e+002,6.109625e+001
9.289808e+002,6.169650e+001
9.299450e+002,6.286475e+001
9.309092e+002,6.550507e+001
9.318735e+002,6.938705e+001
9.328377e+002,7.378937e+001
9.338019e+002,7.818896e+001
9.347662e+002,8.248279e+001
9.357304e+002,8.285172e+001
9.366946e+002,7.832892e+001
9.376589e+002,7.592606e+001
9.386231e+002,7.817499e+001
9.395873e+002,8.278326e+001
9.405516e+002,8.591956e+001
9.415158e+002,8.750659e+001
9.424800e+002,8.837399e+001
9.434443e+002,8.796494e+001
9.444085e+002,8.802264e+001
9.453727e+002,8.997949e+001
9.463370e+002,9.358557e+001
9.473012e+002,9.728070e+001
9.482654e+002,9.937570e+001
9.492297e+002,9.954181e+001
9.501939e+002,9.963718e+001
9.511581e+002,1.009671e+002
9.521224e+002,1.016809e+002
9.530866e+002,9.910562e+001
9.540508e+002,9.504883e+001
9.550151e+002,9.531995e+001
9.559793e+002,1.024749e+002
9.569435e+002,1.052464e+002
9.579078e+002,1.009710e+002
9.588720e+002,9.689050e+001
9.598362e+002,9.658875e+001
9.608005e+002,9.932629e+001
9.617647e+002,1.020661e+002
9.627289e+002,1.026320e+002
9.636932e+002,1.022462e+002
9.646574e+002,1.042518e+002
9.656216e+002,1.071911e+002
9.665859e+002,1.072902e+002
9.675501e+002,1.030568e+002
9.685143e+002,9.779028e+001
9.694786e+002,9.790149e+001
9.704428e+002,1.062078e+002
9.714070e+002,1.131994e+002
9.723713e+002,1.167319e+002
9.733355e+002,1.180579e+002
9.742997e+002,1.171021e+002
9.752640e+002,1.162076e+002
9.762282e+002,1.193724e+002
9.771924e+002,1.286654e+002
9.781567e+002,1.378807e+002
9.791209e+002,1.390352e+002
9.800851e+002,1.363392e+002
9.810494e+002,1.352346e+002
9.820136e+002,1.375669e+002
9.829778e+002,1.423489e+002
9.839421e+002,1.477681e+002
9.849063e+002,1.531701e+002
9.858705e+002,1.557574e+002
9.868348e+002,1.568647e+002
9.877990e+002,1.578043e+002
9.887632e+002,1.584534e+002
9.897275e+002,1.586028e+002
9.906917e+002,1.568666e+002
9.916559e+002,1.513329e+002
9.926202e+002,1.464314e+002
9.935844e+002,1.509860e+002
9.945486e+002,1.578310e+002
9.955129e+002,1.608491e+002
9.964771e+002,1.598413e+002
9.974413e+002,1.571241e+002
9.984056e+002,1.543898e+002
9.993698e+002,1.512000e+002
1.000334e+003,1.492705e+002
1.001298e+003,1.493293e+002
1.002263e+003,1.504147e+002
1.003227e+003,1.528829e+002
1.004191e+003,1.558268e+002
1.005155e+003,1.581643e+002
1.006119e+003,1.596299e+002
1.007084e+003,1.607749e+002
1.008048e+003,1.628045e+002
1.009012e+003,1.653373e+002
1.009976e+003,1.670205e+002
1.010941e+003,1.677699e+002
1.011905e+003,1.682098e+002
1.012869e+003,1.688306e+002
1.013833e+003,1.696033e+002
1.014798e+003,1.707904e+002
1.015762e+003,1.740849e+002
1.016726e+003,1.765316e+002
1.017690e+003,1.761588e+002
1.018654e+003,1.763315e+002
1.019619e+003,1.793119e+002
1.020583e+003,1.844390e+002
1.021547e+003,1.894013e+002
1.022511e+003,1.929549e+002
1.023476e+003,1.963901e+002
1.024440e+003,2.021296e+002
1.025404e+003,2.084436e+002
1.026368e+003,2.134050e+002
1.027333e+003,2.164522e+002
1.028297e+003,2.181621e+002
1.029261e+003,2.187392e+002
1.030225e+003,2.178755e+002
1.031190e+003,2.198463e+002
1.032154e+003,2.270280e+002
1.033118e+003,2.341656e+002
1.034082e+003,2.376560e+002
1.035047e+003,2.388780e+002
1.036011e+003,2.419222e+002
1.036975e+003,2.478049e+002
1.037939e+003,2.512922e+002
1.038903e+003,2.493238e+002
1.039868e+003,2.485941e+002
1.040832e+003,2.524334e+002
1.041796e+003,2.595639e+002
1.042760e+003,2.669757e+002
1.043725e+003,2.728218e+002
1.044689e+003,2.773273e+002
1.045653e+003,2.814676e+002
1.046617e+003,2.852119e+002
1.047582e+003,2.881829e+002
1.048546e+003,2.915444e+002
1.049510e+003,2.953224e+002
1.050474e+003,2.980139e+002
1.051438e+003,2.989630e+002
1.052403e+003,3.017716e+002
1.053367e+003,3.089656e+002
1.054331e+003,3.145786e+002
1.055295e+003,3.157117e+002
1.056260e+003,3.161326e+002
1.057224e+003,3.201437e+002
1.058188e+003,3.284795e+002
1.059152e+003,3.379417e+002
1.060117e+003,3.449269e+002
1.061081e+003,3.498740e+002
1.062045e+003,3.557425e+002
1.063009e+003,3.616650e+002
1.063974e+003,3.660651e+002
1.064938e+003,3.690710e+002
1.065902e+003,3.718526e+002
1.066866e+003,3.748820e+002
1.067830e+003,3.767142e+002
1.068795e+003,3.797127e+002
1.069759e+003,3.876140e+002
1.070723e+003,3.947144e+002
1.071687e+003,3.979021e+002
1.072652e+003,3.995822e+002
1.073616e+003,4.033717e+002
1.074580e+003,4.103590e+002
1.075544e+003,4.180715e+002
1.076509e+003,4.236998e+002
1.077473e+003,4.279887e+002
1.078437e+003,4.335019e+002
1.079401e+003,4.412327e+002
1.080365e+003,4.483638e+002
1.081330e+003,4.514266e+002
1.082294e+003,4.509604e+002
1.083258e+003,4.527709e+002
1.084222e+003,4.596153e+002
1.085187e+003,4.645505e+002
1.086151e+003,4.652337e+002
1.087115e+003,4.647795e+002
1.088079e+003,4.643380e+002
1.089043e+003,4.645739e+002
1.090008e+003,4.667324e+002
1.090972e+003,4.720204e+002
1.091936e+003,4.786191e+002
1.092900e+003,4.816318e+002
1.093865e+003,4.814303e+002
1.094829e+003,4.794165e+002
1.095793e+003,4.754615e+002
1.096757e+003,4.717620e+002
1.097722e+003,4.698941e+002
1.098686e+003,4.690558e+002
1.099650e+003,4.688409e+002
1.100614e+003,4.728756e+002
1.101578e+003,4.756732e+002
1.102543e+003,4.748241e+002
1.103507e+003,4.717615e+002
1.104471e+003,4.665381e+002
1.105435e+003,4.592873e+002
1.106400e+003,4.518414e+002
1.107364e+003,4.472706e+002
1.108328e+003,4.453942e+002
1.109292e+003,4.407815e+002
1.110257e+003,4.338775e+002
1.111221e+003,4.282340e+002
1.112185e+003,4.239307e+002
1.113149e+003,4.196027e+002
1.114114e+003,4.143956e+002
1.115078e+003,4.088633e+002
1.116042e+003,4.041108e+002
1.117006e+003,4.031814e+002
1.117970e+003,4.003962e+002
1.118935e+003,3.907144e+002
1.119899e+003,3.782108e+002
1.120863e+003,3.690433e+002
1.121827e+003,3.652210e+002
1.122792e+003,3.631435e+002
1.123756e+003,3.576840e+002
1.124720e+003,3.483667e+002
1.125684e+003,3.409716e+002
1.126649e+003,3.377360e+002
1.127613e+003,3.338625e+002
1.128577e+003,3.259607e+002
1.129541e+003,3.165092e+002
1.130505e+003,3.096782e+002
1.131470e+003,3.056061e+002
1.132434e+003,3.012055e+002
1.133398e+003,2.963222e+002
1.134362e+003,2.917027e+002
1.135327e+003,2.869149e+002
1.136291e+003,2.820439e+002
1.137255e+003,2.773625e+002
1.138219e+003,2.732209e+002
1.139184e+003,2.702200e+002
1.140148e+003,2.691266e+002
1.141112e+003,2.689525e+002
1.142076e+003,2.634765e+002
1.143041e+003,2.520470e+002
1.144005e+003,2.422310e+002
1.144969e+003,2.367187e+002
1.145933e+003,2.340435e+002
1.146897e+003,2.326557e+002
1.147862e+003,2.321130e+002
1.148826e+003,2.288014e+002
1.149790e+003,2.192689e+002
1.150754e+003,2.098174e+002
1.151719e+003,2.042281e+002
1.152683e+003,2.012908e+002
1.153647e+003,1.987369e+002
1.154611e+003,1.957935e+002
1.155576e+003,1.935165e+002
1.156540e+003,1.932147e+002
1.157504e+003,1.940985e+002
1.158468e+003,1.905295e+002
1.159432e+003,1.805779e+002
1.160397e+003,1.723935e+002
1.161361e+003,1.697007e+002
1.162325e+003,1.695474e+002
1.163289e+003,1.674996e+002
1.164254e+003,1.625948e+002
1.165218e+003,1.580507e+002
1.166182e+003,1.566755e+002
1.167146e+003,1.557023e+002
1.168111e+003,1.520827e+002
1.169075e+003,1.467249e+002
1.170039e+003,1.410905e+002
1.171003e+003,1.358897e+002
1.171968e+003,1.318781e+002
1.172932e+003,1.304095e+002
1.173896e+003,1.319664e+002
1.174860e+003,1.320630e+002
1.175824e+003,1.294398e+002
1.176789e+003,1.255455e+002
1.177753e+003,1.191613e+002
1.178717e+003,1.131721e+002
1.179681e+003,1.109123e+002
1.180646e+003,1.117148e+002
1.181610e+003,1.106226e+002
1.182574e+003,1.041761e+002
1.183538e+003,9.689554e+001
1.184503e+003,9.571127e+001
1.185467e+003,9.778964e+001
1.186431e+003,9.786844e+001
1.187395e+003,9.441010e+001
1.188359e+003,8.978046e+001
1.189324e+003,8.708215e+001
1.190288e+003,8.674094e+001
1.191252e+003,8.616422e+001
1.192216e+003,8.467682e+001
1.193181e+003,8.298270e+001
1.194145e+003,8.091473e+001
1.195109e+003,7.768475e+001
1.196073e+003,7.267798e+001
1.197038e+003,6.728345e+001
1.198002e+003,6.382098e+001
1.198966e+003,6.320041e+001
1.199930e+003,6.371115e+001
1.200895e+003,6.318570e+001
1.201859e+003,6.186169e+001
1.202823e+003,6.080893e+001
1.203787e+003,6.003415e+001
1.204751e+003,5.841916e+001
1.205716e+003,5.433456e+001
1.206680e+003,4.919064e+001
1.207644e+003,4.744290e+001
1.208608e+003,5.043146e+001
1.209573e+003,5.090723e+001
1.210537e+003,4.432632e+001
1.211501e+003,3.936246e+001
1.212465e+003,4.135507e+001
1.213430e+003,4.680731e+001
1.214394e+003,4.949905e+001
1.215358e+003,4.672443e+001
1.216322e+003,4.089883e+001
1.217286e+003,3.595343e+001
1.218251e+003,3.241180e+001
1.219215e+003,2.967065e+001
1.220179e+003,2.823856e+001
1.221143e+003,2.802805e+001
1.222108e+003,2.987000e+001
1.223072e+003,3.217358e+001
1.224036e+003,3.198602e+001
1.225000e+003,2.905988e+001
1.225965e+003,2.788379e+001
1.226929e+003,3.149319e+001
1.227893e+003,3.312903e+001
1.228857e+003,2.874271e+001
1.229822e+003,2.389420e+001
1.230786e+003,2.335181e+001
1.231750e+003,2.659802e+001
1.232714e+003,2.973581e+001
1.233678e+003,2.970520e+001
1.234643e+003,2.691125e+001
1.235607e+003,2.351312e+001
1.236571e+003,1.953656e+001
1.237535e+003,1.831567e+001
1.238500e+003,1.995267e+001
1.239464e+003,2.249966e+001
1.240428e+003,2.592242e+001
1.241392e+003,2.856232e+001
1.242357e+003,2.824133e+001
1.243321e+003,2.509378e+001
1.244285e+003,2.216965e+001
1.245249e+003,2.144485e+001
1.246214e+003,2.216751e+001
1.247178e+003,2.218307e+001
1.248142e+003,2.100375e+001
1.249106e+003,1.976004e+001
1.250070e+003,1.949799e+001
1.251035e+003,1.965945e+001
1.251999e+003,1.873215e+001
1.252963e+003,1.650436e+001
1.253927e+003,1.533063e+001
1.254892e+003,1.597382e+001
1.255856e+003,1.760867e+001
1.256820e+003,2.061313e+001
1.257784e+003,2.337921e+001
1.258749e+003,2.504712e+001
1.259713e+003,2.535904e+001
1.260677e+003,2.385922e+001
1.261641e+003,2.028836e+001
1.262605e+003,1.592770e+001
1.263570e+003,1.295633e+001
1.264534e+003,1.176959e+001
1.265498e+003,1.313000e+001
1.266462e+003,1.930432e+001
1.267427e+003,2.350256e+001
1.268391e+003,2.050565e+001
1.269355e+003,1.359830e+001
1.270319e+003,8.910736e+000
1.271284e+003,7.508881e+000
1.272248e+003,7.124939e+000
1.273212e+003,8.005005e+000
1.274176e+003,1.006479e+001
1.275141e+003,1.101163e+001
1.276105e+003,1.040762e+001
1.277069e+003,9.215546e+000
1.278033e+003,8.323364e+000
1.278997e+003,8.240814e+000
1.279962e+003,9.579742e+000
1.280926e+003,1.269778e+001
1.281890e+003,1.564938e+001
1.282854e+003,1.563840e+001
1.283819e+003,1.401044e+001
1.284783e+003,1.056982e+001
1.285747e+003,7.893402e+000
1.286711e+003,8.430084e+000
1.287676e+003,1.121536e+001
1.288640e+003,1.408081e+001
1.289604e+003,1.589746e+001
1.290568e+003,1.626184e+001
1.291532e+003,1.467117e+001
1.292497e+003,1.186588e+001
1.293461e+003,9.391693e+000
1.294425e+003,7.829834e+000
1.295389e+003,8.484833e+000
1.296354e+003,1.201868e+001
1.297318e+003,1.599939e+001
1.298282e+003,1.811908e+001
1.299246e+003,1.838971e+001
1.300211e+003,1.777591e+001
1.301175e+003,1.684525e+001
1.302139e+003,1.642020e+001
1.303103e+003,1.542819e+001
1.304068e+003,1.394614e+001
1.305032e+003,1.224588e+001
1.305996e+003,1.076007e+001
1.306960e+003,1.015323e+001
1.307924e+003,1.094037e+001
1.308889e+003,1.314960e+001
1.309853e+003,1.613745e+001
1.310817e+003,1.828369e+001
1.311781e+003,1.603317e+001
1.312746e+003,8.064331e+000
1.313710e+003,4.936127e+000
1.314674e+003,1.017715e+001
1.315638e+003,1.682144e+001
1.316603e+003,1.944101e+001
1.317567e+003,1.783606e+001
1.318531e+003,1.417041e+001
1.319495e+003,1.021167e+001
1.320459e+003,9.418823e+000
1.321424e+003,1.504855e+001
1.322388e+003,2.187253e+001
1.323352e+003,2.233832e+001
1.324316e+003,1.755807e+001
1.325281e+003,1.372189e+001
1.326245e+003,1.361099e+001
1.327209e+003,1.492786e+001
1.328173e+003,1.421872e+001
1.329138e+003,1.148499e+001
1.330102e+003,1.045883e+001
1.331066e+003,1.273230e+001
1.332030e+003,1.587939e+001
1.332995e+003,2.039548e+001
1.333959e+003,2.283224e+001
1.334923e+003,1.910858e+001
1.335887e+003,1.189841e+001
1.336851e+003,7.154999e+000
1.337816e+003,7.725861e+000
1.338780e+003,1.089395e+001
1.339744e+003,1.221506e+001
1.340708e+003,1.107507e+001
1.341673e+003,1.078247e+001
1.342637e+003,1.254446e+001
1.343601e+003,1.307327e+001
1.344565e+003,1.196567e+001
1.345530e+003,1.103796e+001
1.346494e+003,1.155258e+001
1.347458e+003,1.286426e+001
1.348422e+003,1.279834e+001
1.349386e+003,1.012128e+001
1.350351e+003,7.896790e+000
1.351315e+003,1.044693e+001
1.352279e+003,1.476862e+001
1.353243e+003,1.491849e+001
1.354208e+003,1.221820e+001
1.355172e+003,1.176389e+001
1.356136e+003,1.517703e+001
1.357100e+003,1.856989e+001
1.358065e+003,1.741507e+001
1.359029e+003,1.271100e+001
1.359993e+003,1.088861e+001
1.360957e+003,1.394641e+001
1.361922e+003,1.613232e+001
1.362886e+003,1.416904e+001
1.363850e+003,1.266418e+001
1.364814e+003,1.426587e+001
1.365778e+003,1.685013e+001
1.366743e+003,1.753519e+001
1.367707e+003,1.571643e+001
1.368671e+003,1.297464e+001
1.369635e+003,1.106381e+001
1.370600e+003,1.045291e+001
1.371564e+003,1.040201e+001
1.372528e+003,9.405731e+000
1.373492e+003,1.044504e+001
1.374457e+003,1.526630e+001
1.375421e+003,1.893344e+001
1.376385e+003,1.930905e+001
1.377349e+003,1.813977e+001
1.378313e+003,1.729605e+001
1.379278e+003,1.691354e+001
1.380242e+003,1.661072e+001
1.381206e+003,1.655563e+001
1.382170e+003,1.718729e+001
1.383135e+003,1.919803e+001
1.384099e+003,2.182224e+001
1.385063e+003,2.249557e+001
1.386027e+003,1.955121e+001
1.386992e+003,1.580029e+001
1.387956e+003,1.414743e+001
1.388920e+003,1.444156e+001
1.389884e+003,1.553177e+001
1.390849e+003,1.758069e+001
1.391813e+003,1.919519e+001
1.392777e+003,1.803577e+001
1.393741e+003,1.596527e+001
1.394705e+003,1.619806e+001
1.395670e+003,1.790771e+001
1.396634e+003,1.874426e+001
1.397598e+003,1.810898e+001
1.398562e+003,1.758792e+001
1.399527e+003,1.865735e+001
1.400491e+003,2.040094e+001
1.401455e+003,2.023972e+001
1.402419e+003,1.792450e+001
1.403384e+003,1.766998e+001
1.404348e+003,2.017450e+001
1.405312e+003,2.060825e+001
1.406276e+003,2.086218e+001
1.407240e+003,2.180679e+001
1.408205e+003,2.118317e+001
1.409169e+003,1.920392e+001
1.410133e+003,1.821371e+001
1.411097e+003,1.867950e+001
1.412062e+003,1.785477e+001
1.413026e+003,1.376419e+001
1.413990e+003,9.386475e+000
1.414954e+003,1.026614e+001
1.415919e+003,1.602112e+001
1.416883e+003,2.110992e+001
1.417847e+003,2.602753e+001
1.418811e+003,2.775940e+001
1.419776e+003,2.236685e+001
1.420740e+003,1.486050e+001
1.421704e+003,1.354205e+001
1.422668e+003,1.884329e+001
1.423632e+003,2.331262e+001
1.424597e+003,2.353198e+001
1.425561e+003,2.195126e+001
1.426525e+003,2.077002e+001
1.427489e+003,1.984167e+001
1.428454e+003,1.816107e+001
1.429418e+003,1.587543e+001
1.430382e+003,1.561389e+001
1.431346e+003,1.875467e+001
1.432311e+003,2.230127e+001
1.433275e+003,2.330438e+001
1.434239e+003,2.322589e+001
1.435203e+003,2.395837e+001
1.436167e+003,2.431888e+001
1.437132e+003,2.453308e+001
1.438096e+003,2.470105e+001
1.439060e+003,2.405151e+001
1.440024e+003,2.292792e+001
1.440989e+003,2.222275e+001
1.441953e+003,2.205936e+001
1.442917e+003,2.189398e+001
1.443881e+003,2.137625e+001
1.444846e+003,2.089194e+001
1.445810e+003,2.115439e+001
1.446774e+003,2.228384e+001
1.447738e+003,2.377789e+001
1.448703e+003,2.419217e+001
1.449667e+003,2.370465e+001
1.450631e+003,2.263312e+001
1.451595e+003,2.076318e+001
1.452559e+003,1.962329e+001
1.453524e+003,2.032037e+001
1.454488e+003,2.245020e+001
1.455452e+003,2.542612e+001
1.456416e+003,2.868079e+001
1.457381e+003,3.006311e+001
1.458345e+003,2.660068e+001
1.459309e+003,1.910364e+001
1.460273e+003,1.484735e+001
1.461238e+003,1.567346e+001
1.462202e+003,1.816980e+001
1.463166e+003,2.382953e+001
1.464130e+003,2.849249e+001
1.465094e+003,2.714835e+001
1.466059e+003,2.227789e+001
1.467023e+003,1.985321e+001
1.467987e+003,2.126279e+001
1.468951e+003,2.336252e+001
1.469916e+003,2.505719e+001
1.470880e+003,2.717599e+001
1.471844e+003,2.867108e+001
1.472808e+003,2.816342e+001
1.473773e+003,2.676340e+001
1.474737e+003,2.550137e+001
1.475701e+003,2.408429e+001
1.476665e+003,2.175027e+001
1.477630e+003,2.056839e+001
1.478594e+003,2.333246e+001
1.479558e+003,2.822568e+001
1.480522e+003,2.938379e+001
1.481486e+003,2.584149e+001
1.482451e+003,2.274713e+001
1.483415e+003,2.241766e+001
1.484379e+003,2.332797e+001
1.485343e+003,2.481516e+001
1.486308e+003,2.669073e+001
1.487272e+003,2.810321e+001
1.488236e+003,2.882526e+001
1.489200e+003,2.981464e+001
1.490165e+003,3.169168e+001
1.491129e+003,3.363647e+001
1.492093e+003,3.487671e+001
1.493057e+003,3.598932e+001
1.494021e+003,3.520325e+001
1.494986e+003,3.065549e+001
1.495950e+003,2.814127e+001
1.496914e+003,2.959317e+001
1.497878e+003,3.171808e+001
1.498843e+003,3.253467e+001
1.499807e+003,3.291986e+001
1.500771e+003,3.494980e+001
1.501735e+003,3.880615e+001
1.502700e+003,4.198282e+001
1.503664e+003,4.197711e+001
1.504628e+003,3.952444e+001
1.505592e+003,3.792349e+001
1.506557e+003,3.815884e+001
1.507521e+003,3.936652e+001
1.508485e+003,4.101544e+001
1.509449e+003,4.293729e+001
1.510413e+003,4.532925e+001
1.511378e+003,4.715555e+001
1.512342e+003,4.888007e+001
1.513306e+003,4.985526e+001
1.514270e+003,4.785477e+001
1.515235e+003,4.248071e+001
1.516199e+003,3.672836e+001
1.517163e+003,3.372562e+001
1.518127e+003,3.328122e+001
1.519092e+003,3.393866e+001
1.520056e+003,3.577838e+001
1.521020e+003,3.625562e+001
1.521984e+003,3.479532e+001
1.522948e+003,3.280530e+001
1.523913e+003,3.017032e+001
1.524877e+003,2.897479e+001
1.525841e+003,3.128769e+001
1.526805e+003,3.575436e+001
1.527770e+003,3.937399e+001
1.528734e+003,4.058655e+001
1.529698e+003,3.904492e+001
1.530662e+003,3.484061e+001
1.531627e+003,2.989200e+001
1.532591e+003,2.808093e+001
1.533555e+003,2.990933e+001
1.534519e+003,3.078586e+001
1.535484e+003,3.022943e+001
1.536448e+003,2.978140e+001
1.537412e+003,2.979626e+001
1.538376e+003,2.943335e+001
1.539340e+003,2.771262e+001
1.540305e+003,2.571182e+001
1.541269e+003,2.578003e+001
1.542233e+003,2.800809e+001
1.543197e+003,2.967648e+001
1.544162e+003,2.918021e+001
1.545126e+003,2.698813e+001
1.546090e+003,2.397159e+001
1.547054e+003,2.216534e+001
1.548019e+003,2.369064e+001
1.548983e+003,2.740994e+001
1.549947e+003,3.007535e+001
1.550911e+003,3.106815e+001
1.551875e+003,3.063287e+001
1.552840e+003,2.886459e+001
1.553804e+003,2.720654e+001
1.554768e+003,2.789648e+001
1.555732e+003,3.058798e+001
1.556697e+003,3.241809e+001
1.557661e+003,3.191537e+001
1.558625e+003,3.064346e+001
1.559589e+003,3.101700e+001
1.560554e+003,3.225256e+001
1.561518e+003,3.210608e+001
1.562482e+003,2.999960e+001
1.563446e+003,2.728018e+001
1.564411e+003,2.464990e+001
1.565375e+003,2.265887e+001
1.566339e+003,2.115744e+001
1.567303e+003,2.030707e+001
1.568267e+003,2.219727e+001
1.569232e+003,2.745355e+001
1.570196e+003,2.999365e+001
1.571160e+003,2.560916e+001
1.572124e+003,1.974045e+001
1.573089e+003,1.855063e+001
1.574053e+003,2.056210e+001
1.575017e+003,2.259985e+001
1.575981e+003,2.398441e+001
1.576946e+003,2.537531e+001
1.577910e+003,2.655780e+001
1.578874e+003,2.714899e+001
1.579838e+003,2.856577e+001
1.580802e+003,3.124200e+001
1.581767e+003,3.226578e+001
1.582731e+003,3.010352e+001
1.583695e+003,2.826538e+001
1.584659e+003,2.837854e+001
1.585624e+003,2.819308e+001
1.586588e+003,2.675125e+001
1.587552e+003,2.606754e+001
1.588516e+003,2.741949e+001
1.589481e+003,3.008154e+001
1.590445e+003,3.233063e+001
1.591409e+003,3.322751e+001
1.592373e+003,3.302255e+001
1.593338e+003,3.249283e+001
1.594302e+003,3.185236e+001
1.595266e+003,3.045776e+001
1.596230e+003,2.840637e+001
1.597194e+003,2.767789e+001
1.598159e+003,2.843524e+001
1.599123e+003,2.922977e+001
1.600087e+003,2.978259e+001
1.601051e+003,3.028214e+001
1.602016e+003,3.069180e+001
1.602980e+003,3.047781e+001
1.603944e+003,2.937781e+001
1.604908e+003,2.808701e+001
1.605873e+003,2.745456e+001
1.606837e+003,2.768546e+001
1.607801e+003,2.903232e+001
1.608765e+003,3.173065e+001
1.609729e+003,3.454910e+001
1.610694e+003,3.516968e+001
1.611658e+003,3.370343e+001
1.612622e+003,3.237280e+001
1.613586e+003,3.278070e+001
1.614551e+003,3.427853e+001
1.615515e+003,3.533472e+001
1.616479e+003,3.537897e+001
1.617443e+003,3.447043e+001
1.618408e+003,3.291959e+001
1.619372e+003,3.134296e+001
1.620336e+003,3.036090e+001
1.621300e+003,2.978061e+001
1.622265e+003,2.888913e+001
1.623229e+003,2.766266e+001
1.624193e+003,2.621420e+001
1.625157e+003,2.427817e+001
1.626121e+003,2.444177e+001
1.627086e+003,2.832053e+001
1.628050e+003,3.261053e+001
1.629014e+003,3.588080e+001
1.629978e+003,3.717908e+001
1.630943e+003,3.532724e+001
1.631907e+003,3.145853e+001
1.632871e+003,2.786523e+001
1.633835e+003,2.558716e+001
1.634800e+003,2.546198e+001
1.635764e+003,2.883435e+001
1.636728e+003,3.369501e+001
1.637692e+003,3.602231e+001
1.638656e+003,3.564429e+001
1.639621e+003,3.604449e+001
1.640585e+003,3.783728e+001
1.641549e+003,3.817010e+001
1.642513e+003,3.685153e+001
1.643478e+003,3.593759e+001
1.644442e+003,3.588797e+001
1.645406e+003,3.599634e+001
1.646370e+003,3.545508e+001
1.647335e+003,3.414075e+001
1.648299e+003,3.322232e+001
1.649263e+003,3.331781e+001
1.650227e+003,3.404190e+001
1.651192e+003,3.586319e+001
1.652156e+003,3.782925e+001
1.653120e+003,3.762827e+001
1.654084e+003,3.574112e+001
1.655048e+003,3.541675e+001
1.656013e+003,3.748370e+001
1.656977e+003,3.928159e+001
1.657941e+003,3.873734e+001
1.658905e+003,3.645093e+001
1.659870e+003,3.381549e+001
1.660834e+003,3.198557e+001
1.661798e+003,3.177029e+001
1.662762e+003,3.271124e+001
1.663727e+003,3.392133e+001
1.664691e+003,3.536862e+001
1.665655e+003,3.666904e+001
1.666619e+003,3.786890e+001
1.667583e+003,3.910907e+001
1.668548e+003,4.006464e+001
1.669512e+003,4.009610e+001
1.670476e+003,3.847845e+001
1.671440e+003,3.559756e+001
1.672405e+003,3.405798e+001
1.673369e+003,3.555917e+001
1.674333e+003,3.799606e+001
1.675297e+003,3.760129e+001
1.676262e+003,3.484146e+001
1.677226e+003,3.263660e+001
1.678190e+003,3.067538e+001
1.679154e+003,3.097598e+001
1.680119e+003,3.678595e+001
1.681083e+003,4.227005e+001
1.682047e+003,4.200876e+001
1.683011e+003,3.898492e+001
1.683975e+003,3.913083e+001
1.684940e+003,4.280859e+001
1.685904e+003,4.563910e+001
1.686868e+003,4.550876e+001
1.687832e+003,4.397226e+001
1.688797e+003,4.185522e+001
1.689761e+003,3.881509e+001
1.690725e+003,3.616537e+001
1.691689e+003,3.462582e+001
1.692654e+003,3.403842e+001
1.693618e+003,3.615976e+001
1.694582e+003,3.880963e+001
1.695546e+003,4.009171e+001
1.696510e+003,4.015482e+001
1.697475e+003,3.991251e+001
1.698439e+003,3.999515e+001
1.699403e+003,4.075903e+001
1.700367e+003,4.216705e+001
1.701332e+003,4.366583e+001
1.702296e+003,4.487219e+001
1.703260e+003,4.614529e+001
1.704224e+003,4.779333e+001
1.705189e+003,4.911005e+001
1.706153e+003,4.921390e+001
1.707117e+003,4.736325e+001
1.708081e+003,4.493079e+001
1.709046e+003,4.533453e+001
1.710010e+003,4.643723e+001
1.710974e+003,4.376987e+001
1.711938e+003,4.220374e+001
1.712902e+003,4.692789e+001
1.713867e+003,5.294943e+001
1.714831e+003,5.425034e+001
1.715795e+003,5.159250e+001
1.716759e+003,4.896204e+001
1.717724e+003,4.807687e+001
1.718688e+003,4.874448e+001
1.719652e+003,5.101263e+001
1.720616e+003,5.372430e+001
1.721581e+003,5.354672e+001
1.722545e+003,5.007416e+001
1.723509e+003,4.768265e+001
1.724473e+003,4.680005e+001
1.725438e+003,4.725555e+001
1.726402e+003,4.922498e+001
1.727366e+003,5.083258e+001
1.728330e+003,5.153305e+001
1.729294e+003,5.188538e+001
1.730259e+003,5.264044e+001
1.731223e+003,5.370200e+001
1.732187e+003,5.379803e+001
1.733151e+003,5.195416e+001
1.734116e+003,4.996701e+001
1.735080e+003,5.150903e+001
1.736044e+003,5.474194e+001
1.737008e+003,5.218625e+001
1.737973e+003,4.406836e+001
1.738937e+003,4.092261e+001
1.739901e+003,4.512051e+001
1.740865e+003,4.849353e+001
1.741829e+003,4.783447e+001
1.742794e+003,4.589417e+001
1.743758e+003,4.422345e+001
1.744722e+003,4.336731e+001
1.745686e+003,4.416745e+001
1.746651e+003,4.636578e+001
1.747615e+003,4.866571e+001
1.748579e+003,5.053040e+001
1.749543e+003,5.194647e+001
1.750508e+003,5.358157e+001
1.751472e+003,5.512262e+001
1.752436e+003,5.529880e+001
1.753400e+003,5.426077e+001
1.754365e+003,5.319833e+001
1.755329e+003,5.261124e+001
1.756293e+003,5.315289e+001
1.757257e+003,5.527719e+001
1.758221e+003,5.680835e+001
1.759186e+003,5.565637e+001
1.760150e+003,5.330347e+001
1.761114e+003,5.165625e+001
1.762078e+003,4.919424e+001
1.763043e+003,4.780939e+001
1.764007e+003,4.801675e+001
1.764971e+003,4.752505e+001
1.765935e+003,4.867593e+001
1.766900e+003,4.968906e+001
1.767864e+003,4.796356e+001
1.768828e+003,4.544058e+001
1.769792e+003,4.463477e+001
1.770756e+003,4.543604e+001
1.771721e+003,4.594135e+001
1.772685e+003,4.501294e+001
1.773649e+003,4.366513e+001
1.774613e+003,4.370911e+001
1.775578e+003,4.540533e+001
1.776542e+003,4.762695e+001
1.777506e+003,5.002057e+001
1.778470e+003,5.118311e+001
1.779435e+003,5.032901e+001
1.780399e+003,4.886664e+001
1.781363e+003,4.720313e+001
1.782327e+003,4.709360e+001
1.783292e+003,4.965793e+001
1.784256e+003,5.089099e+001
1.785220e+003,4.763284e+001
1.786184e+003,4.266229e+001
1.787148e+003,3.962408e+001
1.788113e+003,3.887784e+001
1.789077e+003,4.021613e+001
1.790041e+003,4.411633e+001
1.791005e+003,4.729892e+001
1.791970e+003,4.618268e+001
1.792934e+003,4.330371e+001
1.793898e+003,4.332635e+001
1.794862e+003,4.556140e+001
1.795827e+003,4.551520e+001
1.796791e+003,4.192703e+001
1.797755e+003,4.017758e+001
1.798719e+003,4.408350e+001
1.799683e+003,4.835126e+001
1.800648e+003,4.592072e+001
1.801612e+003,3.925888e+001
1.802576e+003,3.784399e+001
1.803540e+003,4.159036e+001
1.804505e+003,4.258359e+001
1.805469e+003,3.984482e+001
1.806433e+003,3.933847e+001
1.807397e+003,4.297351e+001
1.808362e+003,4.639340e+001
1.809326e+003,4.616327e+001
1.810290e+003,4.466620e+001
1.811254e+003,4.628986e+001
1.812219e+003,5.003827e+001
1.813183e+003,5.050125e+001
1.814147e+003,4.565735e+001
1.815111e+003,3.968991e+001
1.816075e+003,3.723904e+001
1.817040e+003,3.805759e+001
1.818004e+003,3.969986e+001
1.818968e+003,4.206543e+001
1.819932e+003,4.388364e+001
1.820897e+003,4.271121e+001
1.821861e+003,4.186298e+001
1.822825e+003,4.359595e+001
1.823789e+003,4.418973e+001
1.824754e+003,4.330399e+001
1.825718e+003,4.296896e+001
1.826682e+003,4.257886e+001
1.827646e+003,4.196893e+001
1.828610e+003,4.245612e+001
1.829575e+003,4.416852e+001
1.830539e+003,4.513913e+001
1.831503e+003,4.427948e+001
1.832467e+003,4.359100e+001
1.833432e+003,4.528229e+001
1.834396e+003,4.710699e+001
1.835360e+003,4.655829e+001
1.836324e+003,4.520779e+001
1.837289e+003,4.408301e+001
1.838253e+003,4.235059e+001
1.839217e+003,4.178387e+001
1.840181e+003,4.371167e+001
1.841146e+003,4.623691e+001
1.842110e+003,4.853616e+001
1.843074e+003,4.995572e+001
1.844038e+003,4.731342e+001
1.845002e+003,4.051660e+001
1.845967e+003,3.800922e+001
1.846931e+003,4.268320e+001
1.847895e+003,4.702344e+001
1.848859e+003,4.955545e+001
1.849824e+003,5.005930e+001
1.850788e+003,4.999124e+001
1.851752e+003,4.888431e+001
1.852716e+003,4.595499e+001
1.853681e+003,4.328314e+001
1.854645e+003,4.265375e+001
1.855609e+003,4.347733e+001
1.856573e+003,4.398721e+001
1.857537e+003,4.301715e+001
1.858502e+003,4.119830e+001
1.859466e+003,4.060037e+001
1.860430e+003,4.171793e+001
1.861394e+003,4.269702e+001
1.862359e+003,4.282819e+001
1.863323e+003,4.304044e+001
1.864287e+003,4.321823e+001
1.865251e+003,4.340237e+001
1.866216e+003,4.491595e+001
1.867180e+003,4.636548e+001
1.868144e+003,4.530975e+001
1.869108e+003,4.247241e+001
1.870073e+003,3.956766e+001
1.871037e+003,3.750287e+001
1.872001e+003,3.856772e+001
1.872965e+003,4.404965e+001
1.873929e+003,4.698996e+001
1.874894e+003,4.254724e+001
1.875858e+003,3.857568e+001
1.876822e+003,4.003592e+001
1.877786e+003,4.186429e+001
1.878751e+003,3.836124e+001
1.879715e+003,3.420377e+001
1.880679e+003,3.662045e+001
1.881643e+003,4.391766e+001
1.882608e+003,5.003140e+001
1.883572e+003,5.263504e+001
1.884536e+003,5.184232e+001
1.885500e+003,4.730844e+001
1.886464e+003,4.126907e+001
1.887429e+003,3.845959e+001
1.888393e+003,3.929312e+001
1.889357e+003,4.150314e+001
1.890321e+003,4.475235e+001
1.891286e+003,4.658139e+001
1.892250e+003,4.587347e+001
1.893214e+003,4.468613e+001
1.894178e+003,4.494421e+001
1.895143e+003,4.607523e+001
1.896107e+003,4.624783e+001
1.897071e+003,4.602859e+001
1.898035e+003,4.724921e+001
1.899000e+003,4.839108e+001
1.899964e+003,4.732532e+001
1.900928e+003,4.638098e+001
1.901892e+003,4.709021e+001
1.902856e+003,4.843445e+001
1.903821e+003,4.946176e+001
1.904785e+003,4.875604e+001
1.905749e+003,4.699222e+001
1.906713e+003,4.687454e+001
1.907678e+003,4.808670e+001
1.908642e+003,4.782285e+001
1.909606e+003,4.563898e+001
1.910570e+003,4.388284e+001
1.911535e+003,4.385321e+001
1.912499e+003,4.378149e+001
1.913463e+003,4.089252e+001
1.914427e+003,3.616980e+001
1.915391e+003,3.469431e+001
1.916356e+003,3.718018e+001
1.917320e+003,3.949368e+001
1.918284e+003,4.186618e+001
1.919248e+003,4.325229e+001
1.920213e+003,4.119565e+001
1.921177e+003,3.991528e+001
1.922141e+003,4.331900e+001
1.923105e+003,4.744064e+001
1.924070e+003,4.745651e+001
1.925034e+003,4.492368e+001
1.925998e+003,4.476279e+001
1.926962e+003,4.709308e+001
1.927927e+003,4.633267e+001
1.928891e+003,3.945569e+001
1.929855e+003,3.542255e+001
1.930819e+003,3.740747e+001
1.931783e+003,3.939011e+001
1.932748e+003,3.907306e+001
1.933712e+003,3.821902e+001
1.934676e+003,3.826459e+001
1.935640e+003,3.863013e+001
1.936605e+003,3.721686e+001
1.937569e+003,3.406015e+001
1.938533e+003,3.290881e+001
1.939497e+003,3.652066e+001
1.940462e+003,4.098117e+001
1.941426e+003,4.050781e+001
1.942390e+003,3.775259e+001
1.943354e+003,3.868643e+001
1.944318e+003,4.116278e+001
1.945283e+003,4.098538e+001
1.946247e+003,3.943863e+001
1.947211e+003,3.685123e+001
1.948175e+003,3.314139e+001
1.949140e+003,3.277301e+001
1.950104e+003,3.758499e+001
1.951068e+003,4.202368e+001
1.952032e+003,4.073792e+001
1.952997e+003,3.648724e+001
1.953961e+003,3.637793e+001
1.954925e+003,4.086496e+001
1.955889e+003,4.285114e+001
1.956854e+003,4.132925e+001
1.957818e+003,3.974411e+001
1.958782e+003,3.809158e+001
1.959746e+003,3.784909e+001
1.960710e+003,3.820898e+001
1.961675e+003,3.805093e+001
1.962639e+003,3.798163e+001
1.963603e+003,3.825806e+001
1.964567e+003,3.834100e+001
1.965532e+003,3.820575e+001
1.966496e+003,3.874069e+001
1.967460e+003,4.032312e+001
1.968424e+003,4.125620e+001
1.969389e+003,3.974863e+001
1.970353e+003,3.833090e+001
1.971317e+003,4.062424e+001
1.972281e+003,4.331494e+001
1.973245e+003,4.155344e+001
1.974210e+003,3.724521e+001
1.975174e+003,3.394150e+001
1.976138e+003,3.229178e+001
1.977102e+003,3.207687e+001
1.978067e+003,3.283551e+001
1.979031e+003,3.420303e+001
1.979995e+003,3.633633e+001
1.980959e+003,3.839362e+001
1.981924e+003,3.891580e+001
1.982888e+003,3.843600e+001
1.983852e+003,3.643835e+001
1.984816e+003,3.215640e+001
1.985781e+003,3.143906e+001
1.986745e+003,3.680042e+001
1.987709e+003,4.053403e+001
1.988673e+003,3.815512e+001
1.989637e+003,3.506885e+001
1.990602e+003,3.519070e+001
1.991566e+003,3.648917e+001
1.992530e+003,3.780826e+001
1.993494e+003,3.979544e+001
1.994459e+003,3.905737e+001
1.995423e+003,3.332822e+001
1.996387e+003,2.945770e+001
1.997351e+003,2.637918e+001
1.998316e+003,2.572415e+001
1.999280e+003,3.294031e+001
2.000244e+003,3.882489e+001
2.001208e+003,3.670377e+001
2.002172e+003,3.234454e+001
2.003137e+003,2.983655e+001
2.004101e+003,2.925079e+001
2.005065e+003,3.181531e+001
2.006029e+003,3.704135e+001
2.006994e+003,3.934363e+001
2.007958e+003,3.519669e+001
2.008922e+003,3.071384e+001
2.009886e+003,3.186642e+001
2.010851e+003,3.583737e+001
2.011815e+003,3.975146e+001
2.012779e+003,4.267801e+001
2.013743e+003,4.394028e+001
2.014708e+003,4.321454e+001
2.015672e+003,3.926630e+001
2.016636e+003,3.330966e+001
2.017600e+003,2.998514e+001
2.018564e+003,3.098279e+001
2.019529e+003,3.382935e+001
2.020493e+003,3.700916e+001
2.021457e+003,4.001489e+001
2.022421e+003,4.034943e+001
2.023386e+003,3.793094e+001
2.024350e+003,3.489966e+001
2.025314e+003,3.149567e+001
2.026278e+003,3.133310e+001
2.027243e+003,3.542484e+001
2.028207e+003,3.906836e+001
2.029171e+003,4.014816e+001
2.030135e+003,4.155884e+001
2.031099e+003,4.605069e+001
2.032064e+003,4.994650e+001
2.033028e+003,4.727414e+001
2.033992e+003,3.854053e+001
2.034956e+003,3.164554e+001
2.035921e+003,2.892426e+001
2.036885e+003,2.878879e+001
2.037849e+003,3.269211e+001
2.038813e+003,3.712756e+001
2.039778e+003,3.717334e+001
2.040742e+003,3.661520e+001
2.041706e+003,4.061945e+001
2.042670e+003,4.489117e+001
2.043635e+003,4.573322e+001
2.044599e+003,4.402533e+001
2.045563e+003,4.074832e+001
2.046527e+003,3.673495e+001
2.047491e+003,3.454343e+001
2.048456e+003,3.503711e+001
2.049420e+003,3.747269e+001
2.050384e+003,4.212027e+001
2.051348e+003,4.459442e+001
2.052313e+003,4.308578e+001
2.053277e+003,4.049014e+001
2.054241e+003,3.886993e+001
2.055205e+003,3.836356e+001
2.056170e+003,3.749646e+001
2.057134e+003,3.555542e+001
2.058098e+003,3.421625e+001
2.059062e+003,3.444345e+001
2.060027e+003,3.371674e+001
2.060991e+003,2.983932e+001
2.061955e+003,2.680453e+001
2.062919e+003,2.853296e+001
2.063884e+003,3.215213e+001
2.064848e+003,3.632028e+001
2.065812e+003,4.066235e+001
2.066776e+003,4.192075e+001
2.067740e+003,4.047171e+001
2.068705e+003,4.065091e+001
2.069669e+003,4.282523e+001
2.070633e+003,4.267548e+001
2.071597e+003,3.825381e+001
2.072562e+003,3.286310e+001
2.073526e+003,3.033002e+001
2.074490e+003,3.028125e+001
2.075454e+003,2.896497e+001
2.076418e+003,2.677097e+001
2.077383e+003,3.047290e+001
2.078347e+003,3.789328e+001
2.079311e+003,3.700662e+001
2.080275e+003,2.923843e+001
2.081240e+003,2.586374e+001
2.082204e+003,2.866284e+001
2.083168e+003,3.337143e+001
2.084132e+003,3.764853e+001
2.085096e+003,3.886310e+001
2.086061e+003,3.469852e+001
2.087025e+003,2.824808e+001
2.087989e+003,2.637659e+001
2.088953e+003,2.917459e+001
2.089918e+003,3.146912e+001
2.090882e+003,3.332294e+001
2.091846e+003,3.380768e+001
2.092810e+003,3.244913e+001
2.093775e+003,3.118781e+001
2.094739e+003,2.973587e+001
2.095703e+003,2.918451e+001
2.096667e+003,3.155927e+001
2.097632e+003,3.397461e+001
2.098596e+003,3.256296e+001
2.099560e+003,2.887726e+001
2.100524e+003,2.613278e+001
2.101489e+003,2.271628e+001
2.102453e+003,2.071561e+001
2.103417e+003,2.145718e+001
2.104381e+003,2.312341e+001
2.105345e+003,2.780301e+001
2.106310e+003,3.100842e+001
2.107274e+003,2.965164e+001
2.108238e+003,2.837308e+001
2.109202e+003,3.069458e+001
2.110167e+003,3.382593e+001
2.111131e+003,3.378439e+001
2.112095e+003,3.042575e+001
2.113059e+003,2.601254e+001
2.114023e+003,2.245645e+001
2.114988e+003,2.334000e+001
2.115952e+003,3.040393e+001
2.116916e+003,3.376334e+001
2.117880e+003,2.941528e+001
2.118845e+003,2.414447e+001
2.119809e+003,2.308588e+001
2.120773e+003,2.448242e+001
2.121737e+003,2.483841e+001
2.122702e+003,2.411243e+001
2.123666e+003,2.323077e+001
2.124630e+003,2.243768e+001
2.125594e+003,2.331348e+001
2.126559e+003,2.675604e+001
2.127523e+003,2.797525e+001
2.128487e+003,2.350275e+001
2.129451e+003,2.022333e+001
2.130416e+003,2.135669e+001
2.131380e+003,2.370056e+001
2.132344e+003,2.605865e+001
2.133308e+003,2.768112e+001
2.134272e+003,2.707635e+001
2.135237e+003,2.462158e+001
2.136201e+003,2.169238e+001
2.137165e+003,1.944830e+001
2.138129e+003,1.899863e+001
2.139094e+003,2.095477e+001
2.140058e+003,2.503976e+001
2.141022e+003,3.178409e+001
2.141986e+003,3.601181e+001
2.142950e+003,3.243271e+001
2.143915e+003,2.664398e+001
2.144879e+003,2.365378e+001
2.145843e+003,2.216229e+001
2.146807e+003,2.095789e+001
2.147772e+003,2.052454e+001
2.148736e+003,2.073639e+001
2.149700e+003,2.081711e+001
2.150664e+003,2.042047e+001
2.151629e+003,1.971591e+001
2.152593e+003,1.932053e+001
2.153557e+003,2.041385e+001
2.154521e+003,2.193906e+001
2.155486e+003,2.114069e+001
2.156450e+003,1.920432e+001
2.157414e+003,1.932126e+001
2.158378e+003,2.041080e+001
2.159343e+003,1.904190e+001
2.160307e+003,1.638950e+001
2.161271e+003,1.691003e+001
2.162235e+003,2.058774e+001
2.163199e+003,2.315433e+001
2.164164e+003,2.284717e+001
2.165128e+003,2.153635e+001
2.166092e+003,2.069479e+001
2.167056e+003,2.061273e+001
2.168021e+003,2.102097e+001
2.168985e+003,2.086673e+001
2.169949e+003,2.008566e+001
2.170913e+003,1.892026e+001
2.171877e+003,1.683405e+001
2.172842e+003,1.470798e+001
2.173806e+003,1.362225e+001
2.174770e+003,1.359702e+001
2.175734e+003,1.528891e+001
2.176699e+003,1.874506e+001
2.177663e+003,2.202130e+001
2.178627e+003,2.394205e+001
2.179591e+003,2.426035e+001
2.180556e+003,2.098065e+001
2.181520e+003,1.529639e+001
2.182484e+003,1.062827e+001
2.183448e+003,7.649567e+000
2.184413e+003,7.273010e+000
2.185377e+003,8.821228e+000
2.186341e+003,1.010498e+001
2.187305e+003,1.041760e+001
2.188270e+003,1.006732e+001
2.189234e+003,9.720306e+000
2.190198e+003,1.040875e+001
2.191162e+003,1.209958e+001
2.192126e+003,1.306906e+001
2.193091e+003,1.234097e+001
2.194055e+003,1.086310e+001
2.195019e+003,9.896118e+000
2.195983e+003,9.783630e+000
2.196948e+003,9.527557e+000
2.197912e+003,9.335480e+000
2.198876e+003,1.139737e+001
2.199840e+003,1.516736e+001
2.200804e+003,1.750830e+001
2.201769e+003,1.716321e+001
2.202733e+003,1.496365e+001
2.203697e+003,1.202213e+001
2.204661e+003,1.007236e+001
2.205626e+003,1.112341e+001
2.206590e+003,1.398544e+001
2.207554e+003,1.610669e+001
2.208518e+003,1.655457e+001
2.209483e+003,1.454633e+001
2.210447e+003,1.119440e+001
2.211411e+003,8.722382e+000
2.212375e+003,7.209961e+000
2.213340e+003,4.378021e+000
2.214304e+003,3.436279e-001
2.215268e+003,1.444092e+000
2.216232e+003,1.086557e+001
2.217197e+003,1.910532e+001
2.218161e+003,1.641681e+001
2.219125e+003,8.737427e+000
2.220089e+003,4.711304e+000
2.221053e+003,4.439758e+000
2.222018e+003,7.154724e+000
2.222982e+003,1.039871e+001
2.223946e+003,1.168549e+001
2.224910e+003,1.170163e+001
2.225875e+003,1.027762e+001
2.226839e+003,7.632355e+000
2.227803e+003,6.832886e+000
2.228767e+003,9.044312e+000
2.229731e+003,1.071509e+001
2.230696e+003,9.089386e+000
2.231660e+003,6.033722e+000
2.232624e+003,4.044403e+000
2.233588e+003,3.722870e+000
2.234553e+003,4.805115e+000
2.235517e+003,6.685760e+000
2.236481e+003,8.488495e+000
2.237445e+003,9.523346e+000
2.238410e+003,1.058267e+001
2.239374e+003,1.206879e+001
2.240338e+003,1.254697e+001
2.241302e+003,1.132172e+001
2.242267e+003,9.167450e+000
2.243231e+003,6.475677e+000
2.244195e+003,4.583801e+000
2.245159e+003,4.638611e+000
2.246124e+003,5.523102e+000
2.247088e+003,7.283386e+000
2.248052e+003,8.096619e+000
2.249016e+003,4.624146e+000
2.249980e+003,0.000000e+000
2.250945e+003,3.216248e-001
2.251909e+003,4.636841e+000
2.252873e+003,6.822601e+000
2.253837e+003,5.307098e+000
2.254802e+003,4.358246e+000
2.255766e+003,6.538391e+000
2.256730e+003,9.376892e+000
2.257694e+003,1.071976e+001
2.258658e+003,1.142856e+001
2.259623e+003,1.265842e+001
2.260587e+003,1.324051e+001
2.261551e+003,1.157169e+001
2.262515e+003,9.346191e+000
2.263480e+003,9.475739e+000
2.264444e+003,1.085327e+001
2.265408e+003,9.675354e+000
2.266372e+003,5.669373e+000
2.267337e+003,2.285248e+000
2.268301e+003,7.967529e-001
2.269265e+003,4.095154e-001
2.270229e+003,2.854614e+000
2.271194e+003,7.182495e+000
2.272158e+003,1.086493e+001
2.273122e+003,1.273874e+001
2.274086e+003,1.325446e+001
2.275051e+003,1.264511e+001
2.276015e+003,1.175851e+001
2.276979e+003,1.086575e+001
2.277943e+003,7.993195e+000
2.278907e+003,4.448578e+000
2.279872e+003,4.864868e+000
2.280836e+003,8.865723e+000
2.281800e+003,1.017807e+001
2.282764e+003,7.947113e+000
2.283729e+003,5.621399e+000
2.284693e+003,2.829529e+000
2.285657e+003,3.202179e+000
2.286621e+003,8.628632e+000
2.287585e+003,1.183917e+001
2.288550e+003,9.548584e+000
2.289514e+003,6.319611e+000
2.290478e+003,5.325531e+000
2.291442e+003,6.034180e+000
2.292407e+003,6.427490e+000
2.293371e+003,6.480499e+000
2.294335e+003,9.482361e+000
2.295299e+003,1.658875e+001
2.296264e+003,1.961899e+001
2.297228e+003,1.705927e+001
2.298192e+003,1.557834e+001
2.299156e+003,1.727414e+001
2.300121e+003,1.849808e+001
2.301085e+003,1.606073e+001
2.302049e+003,1.388895e+001
2.303013e+003,1.540851e+001
2.303978e+003,1.812234e+001
2.304942e+003,1.900266e+001
2.305906e+003,1.803134e+001
2.306870e+003,1.537897e+001
2.307834e+003,1.162790e+001
2.308799e+003,1.306342e+001
2.309763e+003,2.087909e+001
2.310727e+003,2.540103e+001
2.311691e+003,2.545068e+001
2.312656e+003,2.324365e+001
2.313620e+003,1.912021e+001
2.314584e+003,1.794592e+001
2.315548e+003,2.169373e+001
2.316512e+003,2.540399e+001
2.317477e+003,2.629987e+001
2.318441e+003,2.609268e+001
2.319405e+003,2.515643e+001
2.320369e+003,2.487686e+001
2.321334e+003,3.044467e+001
2.322298e+003,3.796188e+001
2.323262e+003,3.719803e+001
2.324226e+003,3.259155e+001
2.325191e+003,3.517685e+001
2.326155e+003,4.277429e+001
2.327119e+003,4.518628e+001
2.328083e+003,4.131793e+001
2.329048e+003,3.898508e+001
2.330012e+003,4.175455e+001
2.330976e+003,4.483136e+001
2.331940e+003,4.356659e+001
2.332905e+003,4.037573e+001
2.333869e+003,3.938403e+001
2.334833e+003,3.914093e+001
2.335797e+003,3.658652e+001
2.336761e+003,3.526752e+001
2.337726e+003,3.860657e+001
2.338690e+003,4.350336e+001
2.339654e+003,4.871814e+001
2.340618e+003,5.308020e+001
2.341583e+003,5.300705e+001
2.342547e+003,4.962927e+001
2.343511e+003,4.902014e+001
2.344475e+003,5.227802e+001
2.345439e+003,5.372333e+001
2.346404e+003,4.885291e+001
2.347368e+003,4.604800e+001
2.348332e+003,5.173782e+001
2.349296e+003,5.712555e+001
2.350261e+003,5.784320e+001
2.351225e+003,5.831995e+001
2.352189e+003,6.056857e+001
2.353153e+003,6.267572e+001
2.354118e+003,6.122302e+001
2.355082e+003,5.892209e+001
2.356046e+003,6.375980e+001
2.357010e+003,7.570023e+001
2.357975e+003,8.300183e+001
2.358939e+003,8.408389e+001
2.359903e+003,8.595068e+001
2.360867e+003,8.733063e+001
2.361832e+003,8.709296e+001
2.362796e+003,8.685428e+001
2.363760e+003,8.625162e+001
2.364724e+003,8.493921e+001
2.365688e+003,8.757562e+001
2.366653e+003,9.585034e+001
2.367617e+003,1.032169e+002
2.368581e+003,1.038214e+002
2.369545e+003,1.014198e+002
2.370510e+003,1.033476e+002
2.371474e+003,1.087490e+002
2.372438e+003,1.124741e+002
2.373402e+003,1.143335e+002
2.374366e+003,1.144811e+002
2.375331e+003,1.137066e+002
2.376295e+003,1.148793e+002
2.377259e+003,1.180551e+002
2.378223e+003,1.212475e+002
2.379188e+003,1.236441e+002
2.380152e+003,1.257885e+002
2.381116e+003,1.280799e+002
2.382080e+003,1.284594e+002
2.383045e+003,1.236865e+002
2.384009e+003,1.196223e+002
2.384973e+003,1.236465e+002
2.385937e+003,1.294341e+002
2.386902e+003,1.325228e+002
2.387866e+003,1.344251e+002
2.388830e+003,1.338204e+002
2.389794e+003,1.322840e+002
2.390759e+003,1.335044e+002
2.391723e+003,1.360737e+002
2.392687e+003,1.363251e+002
2.393651e+003,1.351436e+002
2.394615e+003,1.367013e+002
2.395580e+003,1.422864e+002
2.396544e+003,1.443600e+002
2.397508e+003,1.370844e+002
2.398472e+003,1.336061e+002
2.399437e+003,1.398881e+002
2.400401e+003,1.453050e+002
2.401365e+003,1.461497e+002
2.402329e+003,1.449778e+002
2.403293e+003,1.421485e+002
2.404258e+003,1.399019e+002
2.405222e+003,1.418120e+002
2.406186e+003,1.457479e+002
2.407150e+003,1.453920e+002
2.408115e+003,1.415810e+002
2.409079e+003,1.419581e+002
2.410043e+003,1.461964e+002
2.411007e+003,1.494984e+002
2.411972e+003,1.519612e+002
2.412936e+003,1.535218e+002
2.413900e+003,1.537115e+002
2.414864e+003,1.531429e+002
2.415829e+003,1.529757e+002
2.416793e+003,1.544721e+002
2.417757e+003,1.575911e+002
2.418721e+003,1.608412e+002
2.419686e+003,1.637496e+002
2.420650e+003,1.655385e+002
2.421614e+003,1.634948e+002
2.422578e+003,1.613295e+002
2.423542e+003,1.640468e+002
2.424507e+003,1.670498e+002
2.425471e+003,1.659116e+002
2.426435e+003,1.632438e+002
2.427399e+003,1.610979e+002
2.428364e+003,1.586347e+002
2.429328e+003,1.547321e+002
2.430292e+003,1.512364e+002
2.431256e+003,1.528513e+002
2.432220e+003,1.608232e+002
2.433185e+003,1.660199e+002
2.434149e+003,1.646484e+002
2.435113e+003,1.629504e+002
2.436077e+003,1.613674e+002
2.437042e+003,1.604308e+002
2.438006e+003,1.609650e+002
2.438970e+003,1.603566e+002
2.439934e+003,1.570993e+002
2.440899e+003,1.533163e+002
2.441863e+003,1.508453e+002
2.442827e+003,1.501425e+002
2.443791e+003,1.511699e+002
2.444756e+003,1.523459e+002
2.445720e+003,1.506693e+002
2.446684e+003,1.469854e+002
2.447648e+003,1.452673e+002
2.448613e+003,1.450678e+002
2.449577e+003,1.442369e+002
2.450541e+003,1.427839e+002
2.451505e+003,1.415308e+002
2.452469e+003,1.406683e+002
2.453434e+003,1.390381e+002
2.454398e+003,1.356062e+002
2.455362e+003,1.323327e+002
2.456326e+003,1.323831e+002
2.457291e+003,1.331018e+002
2.458255e+003,1.296118e+002
2.459219e+003,1.273645e+002
2.460183e+003,1.298098e+002
2.461147e+003,1.308138e+002
2.462112e+003,1.275962e+002
2.463076e+003,1.253661e+002
2.464040e+003,1.284650e+002
2.465004e+003,1.309084e+002
2.465969e+003,1.260648e+002
2.466933e+003,1.189461e+002
2.467897e+003,1.165535e+002
2.468861e+003,1.173338e+002
2.469826e+003,1.184963e+002
2.470790e+003,1.207034e+002
2.471754e+003,1.206610e+002
2.472718e+003,1.188529e+002
2.473683e+003,1.187990e+002
2.474647e+003,1.193814e+002
2.475611e+003,1.172050e+002
2.476575e+003,1.127884e+002
2.477540e+003,1.100656e+002
2.478504e+003,1.100991e+002
2.479468e+003,1.106996e+002
2.480432e+003,1.106386e+002
2.481396e+003,1.109417e+002
2.482361e+003,1.135923e+002
2.483325e+003,1.170369e+002
2.484289e+003,1.185475e+002
2.485253e+003,1.179268e+002
2.486218e+003,1.150747e+002
2.487182e+003,1.110984e+002
2.488146e+003,1.075048e+002
2.489110e+003,1.046265e+002
2.490074e+003,1.011472e+002
2.491039e+003,9.893723e+001
2.492003e+003,1.029586e+002
2.492967e+003,1.114795e+002
2.493931e+003,1.136752e+002
2.494896e+003,1.093657e+002
2.495860e+003,1.053170e+002
2.496824e+003,1.013570e+002
2.497788e+003,9.963086e+001
2.498753e+003,1.001149e+002
2.499717e+003,9.944263e+001
2.500681e+003,9.703506e+001
2.501645e+003,9.604703e+001
2.502610e+003,9.754562e+001
2.503574e+003,9.725571e+001
2.504538e+003,9.230109e+001
2.505502e+003,8.849374e+001
2.506467e+003,9.256061e+001
2.507431e+003,9.823334e+001
2.508395e+003,9.729257e+001
2.509359e+003,9.451395e+001
2.510323e+003,9.575189e+001
2.511288e+003,9.834891e+001
2.512252e+003,9.858661e+001
2.513216e+003,9.757404e+001
2.514180e+003,9.801855e+001
2.515145e+003,9.930228e+001
2.516109e+003,9.837192e+001
2.517073e+003,9.507339e+001
2.518037e+003,9.315576e+001
2.519001e+003,9.290741e+001
2.519966e+003,9.424884e+001
2.520930e+003,9.859390e+001
2.521894e+003,1.003480e+002
2.522858e+003,9.847238e+001
2.523823e+003,9.669449e+001
2.524787e+003,9.570316e+001
2.525751e+003,9.657980e+001
2.526715e+003,9.995407e+001
2.527680e+003,1.021160e+002
2.528644e+003,1.004502e+002
2.529608e+003,9.815341e+001
2.530572e+003,9.778714e+001
2.531537e+003,9.793768e+001
2.532501e+003,9.813599e+001
2.533465e+003,9.857535e+001
2.534429e+003,9.945886e+001
2.535394e+003,1.011411e+002
2.536358e+003,1.046449e+002
2.537322e+003,1.067215e+002
2.538286e+003,1.017393e+002
2.539250e+003,9.343100e+001
2.540215e+003,9.119666e+001
2.541179e+003,9.480542e+001
2.542143e+003,9.520746e+001
2.543107e+003,9.251007e+001
2.544072e+003,9.351724e+001
2.545036e+003,9.823224e+001
2.546000e+003,1.011476e+002
2.546964e+003,1.016474e+002
2.547928e+003,1.006753e+002
2.548893e+003,9.835211e+001
2.549857e+003,9.747025e+001
2.550821e+003,9.923206e+001
2.551785e+003,9.945404e+001
2.552750e+003,9.554059e+001
2.553714e+003,9.102795e+001
2.554678e+003,8.907385e+001
2.555642e+003,8.954514e+001
2.556607e+003,9.208972e+001
2.557571e+003,9.469214e+001
2.558535e+003,9.837592e+001
2.559499e+003,9.931036e+001
2.560464e+003,9.258423e+001
2.561428e+003,8.504788e+001
2.562392e+003,8.330423e+001
2.563356e+003,8.406195e+001
2.564321e+003,8.146646e+001
2.565285e+003,7.744479e+001
2.566249e+003,7.751379e+001
2.567213e+003,8.078622e+001
2.568177e+003,8.187378e+001
2.569142e+003,8.092575e+001
2.570106e+003,7.985440e+001
2.571070e+003,7.953046e+001
2.572034e+003,8.196106e+001
2.572999e+003,8.670270e+001
2.573963e+003,8.824759e+001
2.574927e+003,8.496384e+001
2.575891e+003,8.042184e+001
2.576855e+003,7.611819e+001
2.577820e+003,7.280920e+001
2.578784e+003,7.291818e+001
2.579748e+003,7.378922e+001
2.580712e+003,7.389868e+001
2.581677e+003,7.396872e+001
2.582641e+003,7.057394e+001
2.583605e+003,6.921429e+001
2.584569e+003,7.758395e+001
2.585534e+003,8.410785e+001
2.586498e+003,8.179041e+001
2.587462e+003,7.527979e+001
2.588426e+003,6.792795e+001
2.589391e+003,6.153882e+001
2.590355e+003,6.049667e+001
2.591319e+003,6.302429e+001
2.592283e+003,6.328854e+001
2.593248e+003,6.202823e+001
2.594212e+003,6.081537e+001
2.595176e+003,5.991077e+001
2.596140e+003,5.997430e+001
2.597104e+003,6.061295e+001
2.598069e+003,6.115903e+001
2.599033e+003,6.126523e+001
2.599997e+003,6.043573e+001
2.600961e+003,5.932736e+001
2.601926e+003,6.042181e+001
2.602890e+003,6.481567e+001
2.603854e+003,6.587256e+001
2.604818e+003,6.076361e+001
2.605782e+003,5.607236e+001
2.606747e+003,5.263538e+001
2.607711e+003,5.078644e+001
2.608675e+003,5.042813e+001
2.609639e+003,5.284897e+001
2.610604e+003,5.854541e+001
2.611568e+003,6.193478e+001
2.612532e+003,5.954248e+001
2.613496e+003,5.621640e+001
2.614461e+003,5.573795e+001
2.615425e+003,5.624600e+001
2.616389e+003,5.808505e+001
2.617353e+003,5.821936e+001
2.618318e+003,5.195810e+001
2.619282e+003,4.646194e+001
2.620246e+003,4.995432e+001
2.621210e+003,5.618839e+001
2.622175e+003,5.647980e+001
2.623139e+003,5.410596e+001
2.624103e+003,5.418109e+001
2.625067e+003,5.472147e+001
2.626031e+003,5.386545e+001
2.626996e+003,5.350827e+001
2.627960e+003,5.161066e+001
2.628924e+003,4.739594e+001
2.629888e+003,4.465216e+001
2.630853e+003,4.328769e+001
2.631817e+003,4.534518e+001
2.632781e+003,5.133804e+001
2.633745e+003,5.650214e+001
2.634709e+003,5.816721e+001
2.635674e+003,5.779715e+001
2.636638e+003,5.625293e+001
2.637602e+003,5.281207e+001
2.638566e+003,4.856918e+001
2.639531e+003,4.738113e+001
2.640495e+003,4.922858e+001
2.641459e+003,4.898773e+001
2.642423e+003,4.616684e+001
2.643388e+003,4.563632e+001
2.644352e+003,4.810590e+001
2.645316e+003,5.015887e+001
2.646280e+003,5.042642e+001
2.647245e+003,4.936984e+001
2.648209e+003,4.860101e+001
2.649173e+003,4.800058e+001
2.650137e+003,4.517273e+001
2.651102e+003,4.343292e+001
2.652066e+003,4.560361e+001
2.653030e+003,4.749118e+001
2.653994e+003,5.046109e+001
2.654958e+003,5.248038e+001
2.655923e+003,5.048068e+001
2.656887e+003,4.837231e+001
2.657851e+003,4.843661e+001
2.658815e+003,4.732632e+001
2.659780e+003,4.207410e+001
2.660744e+003,3.622128e+001
2.661708e+003,3.633664e+001
2.662672e+003,4.016812e+001
2.663636e+003,3.847650e+001
2.664601e+003,3.400797e+001
2.665565e+003,3.684641e+001
2.666529e+003,4.310104e+001
2.667493e+003,4.406537e+001
2.668458e+003,4.201706e+001
2.669422e+003,4.192938e+001
2.670386e+003,4.253320e+001
2.671350e+003,4.180176e+001
2.672315e+003,4.107440e+001
2.673279e+003,4.070139e+001
2.674243e+003,3.916095e+001
2.675207e+003,3.748996e+001
2.676172e+003,3.605099e+001
2.677136e+003,3.446713e+001
2.678100e+003,3.332190e+001
2.679064e+003,3.487299e+001
2.680029e+003,3.778720e+001
2.680993e+003,3.780173e+001
2.681957e+003,3.530371e+001
2.682921e+003,3.388257e+001
2.683885e+003,3.390561e+001
2.684850e+003,3.349338e+001
2.685814e+003,3.368222e+001
2.686778e+003,3.463159e+001
2.687742e+003,3.405371e+001
2.688707e+003,3.533429e+001
2.689671e+003,3.948077e+001
2.690635e+003,4.113187e+001
2.691599e+003,4.032449e+001
2.692563e+003,3.793970e+001
2.693528e+003,3.410651e+001
2.694492e+003,3.149835e+001
2.695456e+003,3.179910e+001
2.696420e+003,3.264264e+001
2.697385e+003,3.146182e+001
2.698349e+003,3.046783e+001
2.699313e+003,3.424725e+001
2.700277e+003,3.807458e+001
2.701242e+003,3.530850e+001
2.702206e+003,3.049377e+001
2.703170e+003,2.690298e+001
2.704134e+003,2.543997e+001
2.705099e+003,2.954984e+001
2.706063e+003,3.418109e+001
2.707027e+003,3.279846e+001
2.707991e+003,2.843375e+001
2.708956e+003,2.658032e+001
2.709920e+003,2.604816e+001
2.710884e+003,2.718988e+001
2.711848e+003,2.931995e+001
2.712813e+003,2.734366e+001
2.713777e+003,2.464746e+001
2.714741e+003,2.561050e+001
2.715705e+003,2.706754e+001
2.716669e+003,2.819882e+001
2.717634e+003,2.917026e+001
2.718598e+003,2.801947e+001
2.719562e+003,2.623016e+001
2.720526e+003,2.594693e+001
2.721490e+003,2.390048e+001
2.722455e+003,2.066476e+001
2.723419e+003,1.822028e+001
2.724383e+003,1.782037e+001
2.725347e+003,1.942874e+001
2.726312e+003,2.246054e+001
2.727276e+003,2.472275e+001
2.728240e+003,2.386844e+001
2.729204e+003,2.200772e+001
2.730169e+003,2.070435e+001
2.731133e+003,1.855997e+001
2.732097e+003,1.802591e+001
2.733061e+003,2.131723e+001
2.734026e+003,2.186163e+001
2.734990e+003,2.195557e+001
2.735954e+003,2.292825e+001
2.736918e+003,2.255823e+001
2.737883e+003,2.184882e+001
2.738847e+003,2.032623e+001
2.739811e+003,1.920825e+001
2.740775e+003,1.917545e+001
2.741740e+003,1.814026e+001
2.742704e+003,1.627786e+001
2.743668e+003,1.596765e+001
2.744632e+003,1.710553e+001
2.745596e+003,1.879123e+001
2.746561e+003,2.010977e+001
2.747525e+003,1.842496e+001
2.748489e+003,1.503894e+001
2.749453e+003,1.139716e+001
2.750417e+003,7.354309e+000
2.751382e+003,8.078735e+000
2.752346e+003,1.512906e+001
2.753310e+003,2.115100e+001
2.754274e+003,2.108783e+001
2.755239e+003,1.853983e+001
2.756203e+003,1.702072e+001
2.757167e+003,1.611926e+001
2.758131e+003,1.514169e+001
2.759096e+003,1.430212e+001
2.760060e+003,1.438156e+001
2.761024e+003,1.488272e+001
2.761988e+003,1.568016e+001
2.762953e+003,1.615546e+001
2.763917e+003,1.567831e+001
2.764881e+003,1.496869e+001
2.765845e+003,1.451353e+001
2.766810e+003,1.530602e+001
2.767774e+003,2.043669e+001
2.768738e+003,2.631683e+001
2.769702e+003,2.549698e+001
2.770667e+003,2.273212e+001
2.771631e+003,2.107208e+001
2.772595e+003,1.862852e+001
2.773559e+003,1.681592e+001
2.774523e+003,1.569942e+001
2.775488e+003,1.501520e+001
2.776452e+003,1.566472e+001
2.777416e+003,1.450986e+001
2.778380e+003,1.018723e+001
2.779344e+003,1.258292e+001
2.780309e+003,2.057635e+001
2.781273e+003,1.644583e+001
2.782237e+003,9.688538e+000
2.783201e+003,1.440546e+001
2.784166e+003,1.996204e+001
2.785130e+003,1.842224e+001
2.786094e+003,1.468552e+001
2.787058e+003,1.526270e+001
2.788023e+003,1.895712e+001
2.788987e+003,1.951553e+001
2.789951e+003,1.724803e+001
2.790915e+003,1.735675e+001
2.791880e+003,1.956052e+001
2.792844e+003,1.974738e+001
2.793808e+003,1.916319e+001
2.794772e+003,1.919797e+001
2.795737e+003,1.803362e+001
2.796701e+003,1.704985e+001
2.797665e+003,1.683351e+001
2.798629e+003,1.563335e+001
2.799594e+003,1.457645e+001
2.800558e+003,1.527060e+001
2.801522e+003,1.672446e+001
2.802486e+003,1.719475e+001
2.803450e+003,1.518697e+001
2.804415e+003,1.453688e+001
2.805379e+003,1.538104e+001
2.806343e+003,1.641669e+001
2.807307e+003,1.987329e+001
2.808271e+003,1.991982e+001
2.809236e+003,1.479759e+001
2.810200e+003,1.302419e+001
2.811164e+003,1.615199e+001
2.812128e+003,1.619685e+001
2.813093e+003,1.282906e+001
2.814057e+003,1.634390e+001
2.815021e+003,2.409076e+001
2.815985e+003,2.246574e+001
2.816950e+003,1.579929e+001
2.817914e+003,1.378180e+001
2.818878e+003,1.462488e+001
2.819842e+003,1.557352e+001
2.820807e+003,1.666455e+001
2.821771e+003,1.526102e+001
2.822735e+003,1.099490e+001
2.823699e+003,1.096909e+001
2.824664e+003,1.824706e+001
2.825628e+003,2.082697e+001
2.826592e+003,1.737485e+001
2.827556e+003,1.740120e+001
2.828521e+003,1.908693e+001
2.829485e+003,1.857961e+001
2.830449e+003,1.715927e+001
2.831413e+003,1.522069e+001
2.832377e+003,1.273918e+001
2.833342e+003,1.328903e+001
2.834306e+003,1.715584e+001
2.835270e+003,1.855948e+001
2.836234e+003,1.556731e+001
2.837198e+003,1.475061e+001
2.838163e+003,1.817070e+001
2.839127e+003,1.924625e+001
2.840091e+003,1.763083e+001
2.841055e+003,1.829929e+001
2.842020e+003,2.066374e+001
2.842984e+003,2.242915e+001
2.843948e+003,2.372087e+001
2.844912e+003,2.605978e+001
2.845877e+003,2.903488e+001
2.846841e+003,2.747546e+001
2.847805e+003,1.942630e+001
2.848769e+003,1.547313e+001
2.849734e+003,1.830801e+001
2.850698e+003,1.873122e+001
2.851662e+003,1.632076e+001
2.852626e+003,1.720456e+001
2.853591e+003,2.195097e+001
2.854555e+003,2.491512e+001
2.855519e+003,2.470624e+001
2.856483e+003,2.274510e+001
2.857448e+003,1.966039e+001
2.858412e+003,1.681586e+001
2.859376e+003,1.548567e+001
2.860340e+003,1.579860e+001
2.861304e+003,1.795685e+001
2.862269e+003,1.832280e+001
2.863233e+003,1.567308e+001
2.864197e+003,1.454602e+001
2.865161e+003,1.651071e+001
2.866125e+003,1.683447e+001
2.867090e+003,1.471935e+001
2.868054e+003,1.595732e+001
2.869018e+003,2.111028e+001
2.869982e+003,2.341956e+001
2.870947e+003,2.241273e+001
2.871911e+003,2.343628e+001
2.872875e+003,2.568291e+001
2.873839e+003,2.380850e+001
2.874804e+003,1.811945e+001
2.875768e+003,1.770003e+001
2.876732e+003,2.232072e+001
2.877696e+003,2.287180e+001
2.878661e+003,1.931697e+001
2.879625e+003,2.004665e+001
2.880589e+003,2.607961e+001
2.881553e+003,2.903659e+001
2.882518e+003,2.669019e+001
2.883482e+003,2.585716e+001
2.884446e+003,2.655496e+001
2.885410e+003,2.891849e+001
2.886375e+003,3.265988e+001
2.887339e+003,3.560278e+001
2.888303e+003,3.728464e+001
2.889267e+003,3.563364e+001
2.890231e+003,3.197517e+001
2.891196e+003,3.164967e+001
2.892160e+003,3.548709e+001
2.893124e+003,4.021800e+001
2.894088e+003,4.554884e+001
2.895052e+003,4.942566e+001
2.896017e+003,5.181683e+001
2.896981e+003,5.295001e+001
2.897945e+003,5.297559e+001
2.898909e+003,5.283560e+001
2.899874e+003,5.249109e+001
2.900838e+003,5.050603e+001
2.901802e+003,4.801897e+001
2.902766e+003,4.919818e+001
2.903731e+003,5.426802e+001
2.904695e+003,5.915813e+001
2.905659e+003,6.374104e+001
2.906623e+003,6.416376e+001
2.907588e+003,6.085913e+001
2.908552e+003,6.143799e+001
2.909516e+003,6.506526e+001
2.910480e+003,6.820482e+001
2.911445e+003,7.079793e+001
2.912409e+003,7.413623e+001
2.913373e+003,7.786267e+001
2.914337e+003,8.036702e+001
2.915302e+003,8.178232e+001
2.916266e+003,8.368695e+001
2.917230e+003,8.607037e+001
2.918194e+003,8.921880e+001
2.919158e+003,9.267149e+001
2.920123e+003,9.406714e+001
2.921087e+003,9.432613e+001
2.922051e+003,9.540160e+001
2.923015e+003,9.713142e+001
2.923979e+003,9.848341e+001
2.924944e+003,1.000886e+002
2.925908e+003,1.039992e+002
2.926872e+003,1.090172e+002
2.927836e+003,1.113139e+002
2.928801e+003,1.115240e+002
2.929765e+003,1.123122e+002
2.930729e+003,1.132188e+002
2.931693e+003,1.124367e+002
2.932658e+003,1.118368e+002
2.933622e+003,1.143850e+002
2.934586e+003,1.187469e+002
2.935550e+003,1.240857e+002
2.936515e+003,1.281879e+002
2.937479e+003,1.275179e+002
2.938443e+003,1.247950e+002
2.939407e+003,1.262743e+002
2.940372e+003,1.300108e+002
2.941336e+003,1.325121e+002
2.942300e+003,1.340712e+002
2.943264e+003,1.337302e+002
2.944229e+003,1.340594e+002
2.945193e+003,1.392094e+002
2.946157e+003,1.442586e+002
2.947121e+003,1.450144e+002
2.948085e+003,1.436435e+002
2.949050e+003,1.424553e+002
2.950014e+003,1.418052e+002
2.950978e+003,1.419663e+002
2.951942e+003,1.433900e+002
2.952906e+003,1.484372e+002
2.953871e+003,1.525003e+002
2.954835e+003,1.498752e+002
2.955799e+003,1.486181e+002
2.956763e+003,1.534255e+002
2.957728e+003,1.592479e+002
2.958692e+003,1.630530e+002
2.959656e+003,1.645051e+002
2.960620e+003,1.630554e+002
2.961585e+003,1.611288e+002
2.962549e+003,1.606176e+002
2.963513e+003,1.610358e+002
2.964477e+003,1.620688e+002
2.965442e+003,1.642527e+002
2.966406e+003,1.681006e+002
2.967370e+003,1.718368e+002
2.968334e+003,1.748840e+002
2.969299e+003,1.767169e+002
2.970263e+003,1.771365e+002
2.971227e+003,1.770273e+002
2.972191e+003,1.766674e+002
2.973156e+003,1.776294e+002
2.974120e+003,1.828487e+002
2.975084e+003,1.851487e+002
2.976048e+003,1.827897e+002
2.977012e+003,1.816812e+002
2.977977e+003,1.826805e+002
2.978941e+003,1.831560e+002
2.979905e+003,1.826272e+002
2.980869e+003,1.827215e+002
2.981833e+003,1.839655e+002
2.982798e+003,1.855642e+002
2.983762e+003,1.871916e+002
2.984726e+003,1.900725e+002
2.985690e+003,1.951777e+002
2.986655e+003,1.960163e+002
2.987619e+003,1.929014e+002
2.988583e+003,1.929601e+002
2.989547e+003,1.960654e+002
2.990512e+003,1.989711e+002
2.991476e+003,2.006475e+002
2.992440e+003,1.995595e+002
2.993404e+003,1.964064e+002
2.994369e+003,1.981043e+002
2.995333e+003,2.043499e+002
2.996297e+003,2.039265e+002
2.997261e+003,1.985150e+002
2.998226e+003,1.988479e+002
2.999190e+003,2.025791e+002
3.000154e+003,2.031721e+002
3.001118e+003,2.025936e+002
3.002083e+003,2.059890e+002
3.003047e+003,2.114783e+002
3.004011e+003,2.144291e+002
3.004975e+003,2.156073e+002
3.005939e+003,2.169276e+002
3.006904e+003,2.179001e+002
3.007868e+003,2.157146e+002
3.008832e+003,2.138022e+002
3.009796e+003,2.189611e+002
3.010760e+003,2.251442e+002
3.011725e+003,2.256222e+002
3.012689e+003,2.243179e+002
3.013653e+003,2.243215e+002
3.014617e+003,2.251676e+002
3.015582e+003,2.263419e+002
3.016546e+003,2.285771e+002
3.017510e+003,2.341199e+002
3.018474e+003,2.385395e+002
3.019439e+003,2.365582e+002
3.020403e+003,2.337010e+002
3.021367e+003,2.330201e+002
3.022331e+003,2.317368e+002
3.023296e+003,2.285098e+002
3.024260e+003,2.278009e+002
3.025224e+003,2.316629e+002
3.026188e+003,2.370260e+002
3.027153e+003,2.421487e+002
3.028117e+003,2.457377e+002
3.029081e+003,2.460648e+002
3.030045e+003,2.466790e+002
3.031010e+003,2.483761e+002
3.031974e+003,2.493973e+002
3.032938e+003,2.495356e+002
3.033902e+003,2.527405e+002
3.034866e+003,2.587303e+002
3.035831e+003,2.607097e+002
3.036795e+003,2.578216e+002
3.037759e+003,2.578716e+002
3.038723e+003,2.633042e+002
3.039688e+003,2.651573e+002
3.040652e+003,2.623163e+002
3.041616e+003,2.629250e+002
3.042580e+003,2.663587e+002
3.043544e+003,2.686736e+002
3.044509e+003,2.700907e+002
3.045473e+003,2.722763e+002
3.046437e+003,2.748924e+002
3.047401e+003,2.768461e+002
3.048366e+003,2.778183e+002
3.049330e+003,2.768056e+002
3.050294e+003,2.752358e+002
3.051258e+003,2.796100e+002
3.052223e+003,2.868270e+002
3.053187e+003,2.900314e+002
3.054151e+003,2.911610e+002
3.055115e+003,2.919637e+002
3.056080e+003,2.930509e+002
3.057044e+003,2.951921e+002
3.058008e+003,2.972149e+002
3.058972e+003,2.981571e+002
3.059937e+003,2.979400e+002
3.060901e+003,2.961126e+002
3.061865e+003,2.942607e+002
3.062829e+003,2.933334e+002
3.063793e+003,2.942092e+002
3.064758e+003,2.994701e+002
3.065722e+003,3.030651e+002
3.066686e+003,3.028885e+002
3.067650e+003,3.029793e+002
3.068615e+003,3.048582e+002
3.069579e+003,3.067198e+002
3.070543e+003,3.076183e+002
3.071507e+003,3.074209e+002
3.072471e+003,3.047891e+002
3.073436e+003,3.055342e+002
3.074400e+003,3.118088e+002
3.075364e+003,3.155846e+002
3.076328e+003,3.164411e+002
3.077293e+003,3.167501e+002
3.078257e+003,3.170862e+002
3.079221e+003,3.184323e+002
3.080185e+003,3.201320e+002
3.081150e+003,3.182557e+002
3.082114e+003,3.130016e+002
3.083078e+003,3.126141e+002
3.084042e+003,3.167387e+002
3.085007e+003,3.208625e+002
3.085971e+003,3.242716e+002
3.086935e+003,3.239688e+002
3.087899e+003,3.222020e+002
3.088864e+003,3.227292e+002
3.089828e+003,3.242595e+002
3.090792e+003,3.245486e+002
3.091756e+003,3.243497e+002
3.092720e+003,3.247471e+002
3.093685e+003,3.251085e+002
3.094649e+003,3.236772e+002
3.095613e+003,3.225602e+002
3.096577e+003,3.240672e+002
3.097542e+003,3.269157e+002
3.098506e+003,3.321158e+002
3.099470e+003,3.350073e+002
3.100434e+003,3.336319e+002
3.101398e+003,3.325278e+002
3.102363e+003,3.340053e+002
3.103327e+003,3.356477e+002
3.104291e+003,3.359601e+002
3.105255e+003,3.361933e+002
3.106220e+003,3.357145e+002
3.107184e+003,3.383241e+002
3.108148e+003,3.449802e+002
3.109112e+003,3.483464e+002
3.110077e+003,3.478987e+002
3.111041e+003,3.456259e+002
3.112005e+003,3.430654e+002
3.112969e+003,3.440957e+002
3.113934e+003,3.485741e+002
3.114898e+003,3.496918e+002
3.115862e+003,3.476896e+002
3.116826e+003,3.490864e+002
3.117791e+003,3.529383e+002
3.118755e+003,3.551309e+002
3.119719e+003,3.560360e+002
3.120683e+003,3.554582e+002
3.121647e+003,3.551417e+002
3.122612e+003,3.588966e+002
3.123576e+003,3.622594e+002
3.124540e+003,3.601075e+002
3.125504e+003,3.575044e+002
3.126469e+003,3.622950e+002
3.127433e+003,3.689970e+002
3.128397e+003,3.726161e+002
3.129361e+003,3.733671e+002
3.130325e+003,3.675884e+002
3.131290e+003,3.659973e+002
3.132254e+003,3.724616e+002
3.133218e+003,3.765827e+002
3.134182e+003,3.746227e+002
3.135147e+003,3.739391e+002
3.136111e+003,3.780785e+002
3.137075e+003,3.796020e+002
3.138039e+003,3.726883e+002
3.139004e+003,3.726273e+002
3.139968e+003,3.808596e+002
3.140932e+003,3.833185e+002
3.141896e+003,3.804927e+002
3.142861e+003,3.788868e+002
3.143825e+003,3.795293e+002
3.144789e+003,3.822463e+002
3.145753e+003,3.865978e+002
3.146718e+003,3.920196e+002
3.147682e+003,3.972116e+002
3.148646e+003,3.966628e+002
3.149610e+003,3.931830e+002
3.150574e+003,3.945447e+002
3.151539e+003,3.978484e+002
3.152503e+003,4.011070e+002
3.153467e+003,4.022360e+002
3.154431e+003,3.982246e+002
3.155396e+003,3.959869e+002
3.156360e+003,4.002728e+002
3.157324e+003,4.058133e+002
3.158288e+003,4.081147e+002
3.159252e+003,4.099170e+002
3.160217e+003,4.144022e+002
3.161181e+003,4.165538e+002
3.162145e+003,4.145669e+002
3.163109e+003,4.127387e+002
3.164074e+003,4.117603e+002
3.165038e+003,4.138276e+002
3.166002e+003,4.181461e+002
3.166966e+003,4.182021e+002
3.167931e+003,4.133561e+002
3.168895e+003,4.137943e+002
3.169859e+003,4.199863e+002
3.170823e+003,4.235214e+002
3.171788e+003,4.247899e+002
3.172752e+003,4.252807e+002
3.173716e+003,4.257984e+002
3.174680e+003,4.285459e+002
3.175645e+003,4.314413e+002
3.176609e+003,4.306637e+002
3.177573e+003,4.294317e+002
3.178537e+003,4.311285e+002
3.179501e+003,4.332538e+002
3.180466e+003,4.320374e+002
3.181430e+003,4.306584e+002
3.182394e+003,4.333228e+002
3.183358e+003,4.351225e+002
3.184323e+003,4.331105e+002
3.185287e+003,4.320487e+002
3.186251e+003,4.330244e+002
3.187215e+003,4.345834e+002
3.188179e+003,4.361744e+002
3.189144e+003,4.380426e+002
3.190108e+003,4.402847e+002
3.191072e+003,4.410896e+002
3.192036e+003,4.399633e+002
3.193001e+003,4.396996e+002
3.193965e+003,4.400229e+002
3.194929e+003,4.384895e+002
3.195893e+003,4.360611e+002
3.196858e+003,4.346531e+002
3.197822e+003,4.346215e+002
3.198786e+003,4.366841e+002
3.199750e+003,4.392904e+002
3.200715e+003,4.402327e+002
3.201679e+003,4.407996e+002
3.202643e+003,4.441285e+002
3.203607e+003,4.471875e+002
3.204572e+003,4.470415e+002
3.205536e+003,4.451016e+002
3.206500e+003,4.406429e+002
3.207464e+003,4.391700e+002
3.208428e+003,4.424232e+002
3.209393e+003,4.479030e+002
3.210357e+003,4.539948e+002
3.211321e+003,4.551056e+002
3.212285e+003,4.473034e+002
3.213250e+003,4.452840e+002
3.214214e+003,4.512283e+002
3.215178e+003,4.535635e+002
3.216142e+003,4.529923e+002
3.217106e+003,4.544793e+002
3.218071e+003,4.574725e+002
3.219035e+003,4.606606e+002
3.219999e+003,4.623033e+002
3.220963e+003,4.590996e+002
3.221928e+003,4.549273e+002
3.222892e+003,4.575041e+002
3.223856e+003,4.624374e+002
3.224820e+003,4.622709e+002
3.225785e+003,4.609558e+002
3.226749e+003,4.615929e+002
3.227713e+003,4.619630e+002
3.228677e+003,4.608158e+002
3.229642e+003,4.623968e+002
3.230606e+003,4.680156e+002
3.231570e+003,4.725738e+002
3.232534e+003,4.736547e+002
3.233499e+003,4.735414e+002
3.234463e+003,4.724832e+002
3.235427e+003,4.716837e+002
3.236391e+003,4.712049e+002
3.237355e+003,4.728083e+002
3.238320e+003,4.759368e+002
3.239284e+003,4.794325e+002
3.240248e+003,4.825272e+002
3.241212e+003,4.840601e+002
3.242177e+003,4.843920e+002
3.243141e+003,4.836429e+002
3.244105e+003,4.833765e+002
3.245069e+003,4.883052e+002
3.246033e+003,4.927817e+002
3.246998e+003,4.885727e+002
3.247962e+003,4.858552e+002
3.248926e+003,4.899004e+002
3.249890e+003,4.936400e+002
3.250855e+003,4.949389e+002
3.251819e+003,4.953430e+002
3.252783e+003,4.955897e+002
3.253747e+003,4.960972e+002
3.254712e+003,4.970084e+002
3.255676e+003,4.987077e+002
3.256640e+003,5.013063e+002
3.257604e+003,5.005382e+002
3.258569e+003,4.982717e+002
3.259533e+003,5.017233e+002
3.260497e+003,5.075389e+002
3.261461e+003,5.079650e+002
3.262426e+003,5.072791e+002
3.263390e+003,5.119897e+002
3.264354e+003,5.172050e+002
3.265318e+003,5.152874e+002
3.266282e+003,5.120881e+002
3.267247e+003,5.148073e+002
3.268211e+003,5.165891e+002
3.269175e+003,5.128441e+002
3.270139e+003,5.132798e+002
3.271104e+003,5.196945e+002
3.272068e+003,5.251184e+002
3.273032e+003,5.274088e+002
3.273996e+003,5.270446e+002
3.274960e+003,5.244651e+002
3.275925e+003,5.258568e+002
3.276889e+003,5.312341e+002
3.277853e+003,5.343990e+002
3.278817e+003,5.355579e+002
3.279782e+003,5.347343e+002
3.280746e+003,5.327821e+002
3.281710e+003,5.289795e+002
3.282674e+003,5.274176e+002
3.283639e+003,5.317821e+002
3.284603e+003,5.374791e+002
3.285567e+003,5.403807e+002
3.286531e+003,5.412427e+002
3.287496e+003,5.387253e+002
3.288460e+003,5.383502e+002
3.289424e+003,5.429178e+002
3.290388e+003,5.432300e+002
3.291353e+003,5.389032e+002
3.292317e+003,5.380581e+002
3.293281e+003,5.410851e+002
3.294245e+003,5.431436e+002
3.295209e+003,5.435402e+002
3.296174e+003,5.442366e+002
3.297138e+003,5.453289e+002
3.298102e+003,5.473724e+002
3.299066e+003,5.497261e+002
3.300031e+003,5.502969e+002
3.300995e+003,5.515598e+002
3.301959e+003,5.577733e+002
3.302923e+003,5.625355e+002
3.303887e+003,5.631049e+002
3.304852e+003,5.605536e+002
3.305816e+003,5.555353e+002
3.306780e+003,5.507389e+002
3.307744e+003,5.461510e+002
3.308709e+003,5.487295e+002
3.309673e+003,5.598711e+002
3.310637e+003,5.660325e+002
3.311601e+003,5.674076e+002
3.312566e+003,5.670249e+002
3.313530e+003,5.661389e+002
3.314494e+003,5.659410e+002
3.315458e+003,5.667251e+002
3.316423e+003,5.689722e+002
3.317387e+003,5.712036e+002
3.318351e+003,5.705392e+002
3.319315e+003,5.689512e+002
3.320280e+003,5.675923e+002
3.321244e+003,5.675907e+002
3.322208e+003,5.694573e+002
3.323172e+003,5.720068e+002
3.324136e+003,5.747142e+002
3.325101e+003,5.750063e+002
3.326065e+003,5.727057e+002
3.327029e+003,5.727102e+002
3.327993e+003,5.761606e+002
3.328958e+003,5.789873e+002
3.329922e+003,5.810634e+002
3.330886e+003,5.807031e+002
3.331850e+003,5.795714e+002
3.332814e+003,5.802814e+002
3.333779e+003,5.823649e+002
3.334743e+003,5.856206e+002
3.335707e+003,5.882450e+002
3.336671e+003,5.889230e+002
3.337636e+003,5.893503e+002
3.338600e+003,5.910216e+002
3.339564e+003,5.923990e+002
3.340528e+003,5.917106e+002
3.341493e+003,5.944340e+002
3.342457e+003,6.004155e+002
3.343421e+003,5.994019e+002
3.344385e+003,5.939718e+002
3.345350e+003,5.970793e+002
3.346314e+003,6.060518e+002
3.347278e+003,6.084728e+002
3.348242e+003,6.067815e+002
3.349207e+003,6.063048e+002
3.350171e+003,6.069890e+002
3.351135e+003,6.099460e+002
3.352099e+003,6.122700e+002
3.353063e+003,6.112051e+002
3.354028e+003,6.104272e+002
3.354992e+003,6.108583e+002
3.355956e+003,6.138246e+002
3.356920e+003,6.192040e+002
3.357885e+003,6.226627e+002
3.358849e+003,6.226621e+002
3.359813e+003,6.221716e+002
3.360777e+003,6.214073e+002
3.361741e+003,6.241099e+002
3.362706e+003,6.279072e+002
3.363670e+003,6.273408e+002
3.364634e+003,6.251908e+002
3.365598e+003,6.240829e+002
3.366563e+003,6.252704e+002
3.367527e+003,6.297212e+002
3.368491e+003,6.351505e+002
3.369455e+003,6.402462e+002
3.370420e+003,6.427986e+002
3.371384e+003,6.395243e+002
3.372348e+003,6.383878e+002
3.373312e+003,6.395663e+002
3.374277e+003,6.397563e+002
3.375241e+003,6.389164e+002
3.376205e+003,6.378068e+002
3.377169e+003,6.371343e+002
3.378134e+003,6.379222e+002
3.379098e+003,6.397657e+002
3.380062e+003,6.418612e+002
3.381026e+003,6.447161e+002
3.381990e+003,6.517827e+002
3.382955e+003,6.551147e+002
3.383919e+003,6.473153e+002
3.384883e+003,6.457939e+002
3.385847e+003,6.536548e+002
3.386812e+003,6.542283e+002
3.387776e+003,6.449291e+002
3.388740e+003,6.431139e+002
3.389704e+003,6.521456e+002
3.390668e+003,6.542488e+002
3.391633e+003,6.510220e+002
3.392597e+003,6.520648e+002
3.393561e+003,6.550154e+002
3.394525e+003,6.576205e+002
3.395490e+003,6.583900e+002
3.396454e+003,6.563983e+002
3.397418e+003,6.531040e+002
3.398382e+003,6.493984e+002
3.399347e+003,6.497749e+002
3.400311e+003,6.579642e+002
3.401275e+003,6.637974e+002
3.402239e+003,6.649167e+002
3.403204e+003,6.662563e+002
3.404168e+003,6.674813e+002
3.405132e+003,6.652870e+002
3.406096e+003,6.622435e+002
3.407061e+003,6.644714e+002
3.408025e+003,6.684105e+002
3.408989e+003,6.694130e+002
3.409953e+003,6.704824e+002
3.410917e+003,6.760201e+002
3.411882e+003,6.809596e+002
3.412846e+003,6.821700e+002
3.413810e+003,6.800220e+002
3.414774e+003,6.745148e+002
3.415739e+003,6.705277e+002
3.416703e+003,6.692310e+002
3.417667e+003,6.722841e+002
3.418631e+003,6.785258e+002
3.419595e+003,6.836141e+002
3.420560e+003,6.872246e+002
3.421524e+003,6.893264e+002
3.422488e+003,6.892224e+002
3.423452e+003,6.837496e+002
3.424417e+003,6.786702e+002
3.425381e+003,6.772280e+002
3.426345e+003,6.775524e+002
3.427309e+003,6.791392e+002
3.428274e+003,6.827382e+002
3.429238e+003,6.880281e+002
3.430202e+003,6.901217e+002
3.431166e+003,6.881572e+002
3.432131e+003,6.886626e+002
3.433095e+003,6.907771e+002
3.434059e+003,6.901921e+002
3.435023e+003,6.891857e+002
3.435988e+003,6.909910e+002
3.436952e+003,6.939928e+002
3.437916e+003,6.971880e+002
3.438880e+003,6.999822e+002
3.439844e+003,7.020197e+002
3.440809e+003,7.032292e+002
3.441773e+003,7.031392e+002
3.442737e+003,7.041417e+002
3.443701e+003,7.063577e+002
3.444666e+003,7.081669e+002
3.445630e+003,7.100408e+002
3.446594e+003,7.144387e+002
3.447558e+003,7.187239e+002
3.448522e+003,7.191047e+002
3.449487e+003,7.171514e+002
3.450451e+003,7.140067e+002
3.451415e+003,7.121906e+002
3.452379e+003,7.152977e+002
3.453344e+003,7.178235e+002
3.454308e+003,7.180146e+002
3.455272e+003,7.189124e+002
3.456236e+003,7.208843e+002
3.457201e+003,7.251150e+002
3.458165e+003,7.302722e+002
3.459129e+003,7.329241e+002
3.460093e+003,7.327189e+002
3.461058e+003,7.283809e+002
3.462022e+003,7.248634e+002
3.462986e+003,7.336473e+002
3.463950e+003,7.418265e+002
3.464915e+003,7.385385e+002
3.465879e+003,7.367731e+002
3.466843e+003,7.385085e+002
3.467807e+003,7.430747e+002
3.468771e+003,7.492930e+002
3.469736e+003,7.542614e+002
3.470700e+003,7.564205e+002
3.471664e+003,7.518661e+002
3.472628e+003,7.450265e+002
3.473593e+003,7.515731e+002
3.474557e+003,7.612847e+002
3.475521e+003,7.634043e+002
3.476485e+003,7.631338e+002
3.477449e+003,7.624039e+002
3.478414e+003,7.634865e+002
3.479378e+003,7.670210e+002
3.480342e+003,7.716356e+002
3.481306e+003,7.767186e+002
3.482271e+003,7.786272e+002
3.483235e+003,7.775880e+002
3.484199e+003,7.749133e+002
3.485163e+003,7.728042e+002
3.486128e+003,7.751266e+002
3.487092e+003,7.799955e+002
3.488056e+003,7.861437e+002
3.489020e+003,7.912089e+002
3.489985e+003,7.939387e+002
3.490949e+003,7.940698e+002
3.491913e+003,7.909629e+002
3.492877e+003,7.885709e+002
3.493842e+003,7.871388e+002
3.494806e+003,7.915062e+002
3.495770e+003,7.988282e+002
3.496734e+003,8.026776e+002
3.497698e+003,8.040964e+002
3.498663e+003,8.044694e+002
3.499627e+003,8.060178e+002
3.500591e+003,0.000000e+000
