9.974011e+001,2.344679e+002
1.007043e+002,2.349522e+002
1.016686e+002,2.362909e+002
1.026328e+002,2.383442e+002
1.035970e+002,2.396688e+002
1.045613e+002,2.410893e+002
1.055255e+002,2.420861e+002
1.064897e+002,2.414788e+002
1.074540e+002,2.374263e+002
1.084182e+002,2.332323e+002
1.093824e+002,2.284500e+002
1.103467e+002,2.232279e+002
1.113109e+002,2.185315e+002
1.122751e+002,2.163804e+002
1.132394e+002,2.160382e+002
1.142036e+002,2.175168e+002
1.151678e+002,2.204215e+002
1.161321e+002,2.230822e+002
1.170963e+002,2.221654e+002
1.180605e+002,2.187429e+002
1.190248e+002,2.142582e+002
1.199890e+002,2.102619e+002
1.209532e+002,2.075405e+002
1.219175e+002,2.056071e+002
1.228817e+002,2.045276e+002
1.238459e+002,2.040163e+002
1.248102e+002,2.035583e+002
1.257744e+002,2.030175e+002
1.267386e+002,2.024285e+002
1.277029e+002,2.014475e+002
1.286671e+002,2.000289e+002
1.296313e+002,1.984445e+002
1.305956e+002,1.975876e+002
1.315598e+002,1.965316e+002
1.325240e+002,1.947782e+002
1.334883e+002,1.922578e+002
1.344525e+002,1.897314e+002
1.354167e+002,1.885096e+002
1.363810e+002,1.879798e+002
1.373452e+002,1.876531e+002
1.383094e+002,1.871268e+002
1.392737e+002,1.864321e+002
1.402379e+002,1.858541e+002
1.412021e+002,1.852533e+002
1.421664e+002,1.846458e+002
1.431306e+002,1.841958e+002
1.440948e+002,1.853072e+002
1.450591e+002,1.851004e+002
1.460233e+002,1.817241e+002
1.469875e+002,1.763733e+002
1.479518e+002,1.723227e+002
1.489160e+002,1.739108e+002
1.498802e+002,1.758489e+002
1.508445e+002,1.765476e+002
1.518087e+002,1.757819e+002
1.527729e+002,1.748617e+002
1.537372e+002,1.766012e+002
1.547014e+002,1.789150e+002
1.556656e+002,1.798245e+002
1.566299e+002,1.781579e+002
1.575941e+002,1.739126e+002
1.585583e+002,1.703006e+002
1.595226e+002,1.673739e+002
1.604868e+002,1.649358e+002
1.614510e+002,1.626347e+002
1.624153e+002,1.595775e+002
1.633795e+002,1.572743e+002
1.643438e+002,1.565253e+002
1.653080e+002,1.568635e+002
1.662722e+002,1.575345e+002
1.672365e+002,1.580928e+002
1.682007e+002,1.585200e+002
1.691649e+002,1.591744e+002
1.701292e+002,1.600056e+002
1.710934e+002,1.607446e+002
1.720576e+002,1.602861e+002
1.730219e+002,1.591498e+002
1.739861e+002,1.581531e+002
1.749503e+002,1.574045e+002
1.759146e+002,1.565921e+002
1.768788e+002,1.551295e+002
1.778430e+002,1.540432e+002
1.788073e+002,1.531555e+002
1.797715e+002,1.524237e+002
1.807357e+002,1.518989e+002
1.817000e+002,1.514642e+002
1.826642e+002,1.498594e+002
1.836284e+002,1.480363e+002
1.845927e+002,1.468379e+002
1.855569e+002,1.470587e+002
1.865211e+002,1.468970e+002
1.874854e+002,1.459923e+002
1.884496e+002,1.447911e+002
1.894138e+002,1.436540e+002
1.903781e+002,1.427651e+002
1.913423e+002,1.423623e+002
1.923065e+002,1.427039e+002
1.932708e+002,1.435036e+002
1.942350e+002,1.441324e+002
1.951992e+002,1.430944e+002
1.961635e+002,1.394370e+002
1.971277e+002,1.371193e+002
1.980919e+002,1.376711e+002
1.990562e+002,1.410334e+002
2.000204e+002,1.428903e+002
2.009846e+002,1.412937e+002
2.019489e+002,1.392305e+002
2.029131e+002,1.373955e+002
2.038773e+002,1.361065e+002
2.048416e+002,1.357408e+002
2.058058e+002,1.374018e+002
2.067700e+002,1.394182e+002
2.077343e+002,1.404246e+002
2.086985e+002,1.394383e+002
2.096627e+002,1.371319e+002
2.106270e+002,1.364750e+002
2.115912e+002,1.371872e+002
2.125554e+002,1.382879e+002
2.135197e+002,1.386596e+002
2.144839e+002,1.379501e+002
2.154481e+002,1.362925e+002
2.164124e+002,1.329184e+002
2.173766e+002,1.292394e+002
2.183408e+002,1.274675e+002
2.193051e+002,1.295578e+002
2.202693e+002,1.315268e+002
2.212335e+002,1.324637e+002
2.221978e+002,1.324942e+002
2.231620e+002,1.322071e+002
2.241262e+002,1.324227e+002
2.250904e+002,1.330673e+002
2.260547e+002,1.337962e+002
2.270189e+002,1.343352e+002
2.279831e+002,1.344336e+002
2.289474e+002,1.338678e+002
2.299116e+002,1.330290e+002
2.308758e+002,1.320502e+002
2.318401e+002,1.309537e+002
2.328043e+002,1.297914e+002
2.337685e+002,1.296501e+002
2.347328e+002,1.299513e+002
2.356970e+002,1.302877e+002
2.366612e+002,1.308947e+002
2.376255e+002,1.321814e+002
2.385897e+002,1.329264e+002
2.395539e+002,1.327276e+002
2.405182e+002,1.320999e+002
2.414824e+002,1.311687e+002
2.424466e+002,1.299461e+002
2.434109e+002,1.290282e+002
2.443751e+002,1.286393e+002
2.453393e+002,1.287143e+002
2.463036e+002,1.295601e+002
2.472678e+002,1.316260e+002
2.482320e+002,1.351351e+002
2.491963e+002,1.369774e+002
2.501605e+002,1.366902e+002
2.511247e+002,1.353037e+002
2.520890e+002,1.344641e+002
2.530532e+002,1.341370e+002
2.540174e+002,1.345655e+002
2.549817e+002,1.365844e+002
2.559459e+002,1.395605e+002
2.569102e+002,1.422006e+002
2.578744e+002,1.433018e+002
2.588386e+002,1.430683e+002
2.598029e+002,1.416554e+002
2.607671e+002,1.396656e+002
2.617313e+002,1.379438e+002
2.626956e+002,1.375752e+002
2.636598e+002,1.382898e+002
2.646240e+002,1.396269e+002
2.655883e+002,1.412593e+002
2.665525e+002,1.427892e+002
2.675167e+002,1.432898e+002
2.684810e+002,1.430413e+002
2.694452e+002,1.425444e+002
2.704094e+002,1.413517e+002
2.713737e+002,1.393633e+002
2.723379e+002,1.393094e+002
2.733021e+002,1.428660e+002
2.742664e+002,1.461556e+002
2.752306e+002,1.482394e+002
2.761948e+002,1.488903e+002
2.771591e+002,1.483643e+002
2.781233e+002,1.454981e+002
2.790875e+002,1.428389e+002
2.800518e+002,1.421217e+002
2.810160e+002,1.441794e+002
2.819802e+002,1.479869e+002
2.829445e+002,1.510550e+002
2.839087e+002,1.534660e+002
2.848729e+002,1.547339e+002
2.858372e+002,1.543648e+002
2.868014e+002,1.518169e+002
2.877656e+002,1.508754e+002
2.887299e+002,1.517903e+002
2.896941e+002,1.530445e+002
2.906583e+002,1.536168e+002
2.916226e+002,1.534758e+002
2.925868e+002,1.534782e+002
2.935510e+002,1.536689e+002
2.945153e+002,1.540840e+002
2.954795e+002,1.547389e+002
2.964437e+002,1.556343e+002
2.974080e+002,1.561744e+002
2.983722e+002,1.562449e+002
2.993364e+002,1.561325e+002
3.003007e+002,1.559899e+002
3.012649e+002,1.558540e+002
3.022291e+002,1.557036e+002
3.031934e+002,1.567027e+002
3.041576e+002,1.592759e+002
3.051218e+002,1.624045e+002
3.060861e+002,1.642633e+002
3.070503e+002,1.633524e+002
3.080145e+002,1.619463e+002
3.089788e+002,1.599881e+002
3.099430e+002,1.582037e+002
3.109072e+002,1.576443e+002
3.118715e+002,1.598290e+002
3.128357e+002,1.622988e+002
3.137999e+002,1.633969e+002
3.147642e+002,1.632740e+002
3.157284e+002,1.627934e+002
3.166926e+002,1.636367e+002
3.176569e+002,1.653104e+002
3.186211e+002,1.659221e+002
3.195853e+002,1.653641e+002
3.205496e+002,1.644690e+002
3.215138e+002,1.655021e+002
3.224780e+002,1.696061e+002
3.234423e+002,1.717070e+002
3.244065e+002,1.701748e+002
3.253707e+002,1.660933e+002
3.263350e+002,1.636462e+002
3.272992e+002,1.648372e+002
3.282634e+002,1.668526e+002
3.292277e+002,1.701186e+002
3.301919e+002,1.739624e+002
3.311561e+002,1.767783e+002
3.321204e+002,1.761254e+002
3.330846e+002,1.743498e+002
3.340488e+002,1.721246e+002
3.350131e+002,1.699717e+002
3.359773e+002,1.685502e+002
3.369415e+002,1.701863e+002
3.379058e+002,1.742050e+002
3.388700e+002,1.767678e+002
3.398342e+002,1.767314e+002
3.407985e+002,1.746617e+002
3.417627e+002,1.742944e+002
3.427269e+002,1.767065e+002
3.436912e+002,1.786278e+002
3.446554e+002,1.794655e+002
3.456196e+002,1.795121e+002
3.465839e+002,1.800321e+002
3.475481e+002,1.823588e+002
3.485123e+002,1.847168e+002
3.494765e+002,1.863053e+002
3.504408e+002,1.868457e+002
3.514050e+002,1.865841e+002
3.523692e+002,1.857895e+002
3.533335e+002,1.850532e+002
3.542977e+002,1.850068e+002
3.552619e+002,1.858616e+002
3.562262e+002,1.874246e+002
3.571904e+002,1.883140e+002
3.581546e+002,1.880025e+002
3.591189e+002,1.878064e+002
3.600831e+002,1.882681e+002
3.610473e+002,1.892625e+002
3.620116e+002,1.892199e+002
3.629758e+002,1.867329e+002
3.639400e+002,1.851477e+002
3.649043e+002,1.861469e+002
3.658685e+002,1.894109e+002
3.668327e+002,1.920172e+002
3.677970e+002,1.897225e+002
3.687612e+002,1.872077e+002
3.697254e+002,1.869731e+002
3.706897e+002,1.894272e+002
3.716539e+002,1.931239e+002
3.726181e+002,1.945964e+002
3.735824e+002,1.940951e+002
3.745466e+002,1.931678e+002
3.755108e+002,1.923892e+002
3.764751e+002,1.919017e+002
3.774393e+002,1.914341e+002
3.784035e+002,1.898917e+002
3.793678e+002,1.892251e+002
3.803320e+002,1.906364e+002
3.812962e+002,1.938493e+002
3.822605e+002,1.963522e+002
3.832247e+002,1.960090e+002
3.841889e+002,1.954568e+002
3.851532e+002,1.954305e+002
3.861174e+002,1.959740e+002
3.870816e+002,1.965630e+002
3.880459e+002,1.963801e+002
3.890101e+002,1.959270e+002
3.899743e+002,1.959564e+002
3.909386e+002,1.966765e+002
3.919028e+002,1.978221e+002
3.928670e+002,1.981200e+002
3.938313e+002,1.965605e+002
3.947955e+002,1.958781e+002
3.957597e+002,1.976777e+002
3.967240e+002,2.012975e+002
3.976882e+002,2.029702e+002
3.986524e+002,1.990015e+002
3.996167e+002,1.967708e+002
4.005809e+002,1.979719e+002
4.015451e+002,2.016082e+002
4.025094e+002,2.050208e+002
4.034736e+002,2.068652e+002
4.044378e+002,2.078353e+002
4.054021e+002,2.075054e+002
4.063663e+002,2.061442e+002
4.073305e+002,2.044467e+002
4.082948e+002,2.036587e+002
4.092590e+002,2.039031e+002
4.102232e+002,2.052758e+002
4.111875e+002,2.081305e+002
4.121517e+002,2.114301e+002
4.131159e+002,2.128047e+002
4.140802e+002,2.111391e+002
4.150444e+002,2.101541e+002
4.160086e+002,2.094005e+002
4.169729e+002,2.091663e+002
4.179371e+002,2.099823e+002
4.189013e+002,2.122273e+002
4.198656e+002,2.137013e+002
4.208298e+002,2.141485e+002
4.217940e+002,2.138870e+002
4.227583e+002,2.133619e+002
4.237225e+002,2.130149e+002
4.246867e+002,2.133123e+002
4.256510e+002,2.136955e+002
4.266152e+002,2.139259e+002
4.275794e+002,2.142534e+002
4.285437e+002,2.151897e+002
4.295079e+002,2.171926e+002
4.304721e+002,2.183761e+002
4.314364e+002,2.190800e+002
4.324006e+002,2.194558e+002
4.333648e+002,2.191221e+002
4.343291e+002,2.168043e+002
4.352933e+002,2.157744e+002
4.362575e+002,2.181227e+002
4.372218e+002,2.212064e+002
4.381860e+002,2.227301e+002
4.391502e+002,2.213878e+002
4.401145e+002,2.193392e+002
4.410787e+002,2.195786e+002
4.420429e+002,2.213268e+002
4.430072e+002,2.235283e+002
4.439714e+002,2.253002e+002
4.449356e+002,2.263179e+002
4.458999e+002,2.265864e+002
4.468641e+002,2.262702e+002
4.478283e+002,2.260156e+002
4.487926e+002,2.264413e+002
4.497568e+002,2.279054e+002
4.507210e+002,2.295592e+002
4.516853e+002,2.301841e+002
4.526495e+002,2.305927e+002
4.536137e+002,2.316249e+002
4.545780e+002,2.333966e+002
4.555422e+002,2.345950e+002
4.565064e+002,2.333832e+002
4.574707e+002,2.320585e+002
4.584349e+002,2.318319e+002
4.593991e+002,2.326445e+002
4.603634e+002,2.333719e+002
4.613276e+002,2.316405e+002
4.622918e+002,2.281398e+002
4.632561e+002,2.257956e+002
4.642203e+002,2.253854e+002
4.651845e+002,2.264745e+002
4.661488e+002,2.274757e+002
4.671130e+002,2.280416e+002
4.680772e+002,2.281909e+002
4.690415e+002,2.278971e+002
4.700057e+002,2.275665e+002
4.709699e+002,2.278358e+002
4.719342e+002,2.294244e+002
4.728984e+002,2.305716e+002
4.738626e+002,2.300844e+002
4.748269e+002,2.286412e+002
4.757911e+002,2.272946e+002
4.767553e+002,2.270762e+002
4.777196e+002,2.281284e+002
4.786838e+002,2.297284e+002
4.796480e+002,2.314393e+002
4.806123e+002,2.326898e+002
4.815765e+002,2.331194e+002
4.825407e+002,2.331058e+002
4.835050e+002,2.325000e+002
4.844692e+002,2.310903e+002
4.854334e+002,2.295128e+002
4.863977e+002,2.278109e+002
4.873619e+002,2.254907e+002
4.883261e+002,2.228787e+002
4.892904e+002,2.207183e+002
4.902546e+002,2.195583e+002
4.912188e+002,2.196370e+002
4.921831e+002,2.207338e+002
4.931473e+002,2.220334e+002
4.941115e+002,2.230396e+002
4.950758e+002,2.235800e+002
4.960400e+002,2.228468e+002
4.970042e+002,2.207549e+002
4.979685e+002,2.181499e+002
4.989327e+002,2.179731e+002
4.998969e+002,2.208416e+002
5.008612e+002,2.229526e+002
5.018254e+002,2.235643e+002
5.027896e+002,2.229267e+002
5.037539e+002,2.219063e+002
5.047181e+002,2.207690e+002
5.056823e+002,2.201742e+002
5.066466e+002,2.201875e+002
5.076108e+002,2.207110e+002
5.085750e+002,2.215784e+002
5.095393e+002,2.226178e+002
5.105035e+002,2.232103e+002
5.114677e+002,2.232733e+002
5.124320e+002,2.232727e+002
5.133962e+002,2.236744e+002
5.143605e+002,2.247524e+002
5.153247e+002,2.261886e+002
5.162889e+002,2.268868e+002
5.172532e+002,2.267133e+002
5.182174e+002,2.271625e+002
5.191816e+002,2.294658e+002
5.201459e+002,2.339211e+002
5.211101e+002,2.376884e+002
5.220743e+002,2.398144e+002
5.230386e+002,2.414966e+002
5.240028e+002,2.434915e+002
5.249670e+002,2.463243e+002
5.259313e+002,2.502690e+002
5.268955e+002,2.558536e+002
5.278597e+002,2.608108e+002
5.288240e+002,2.633752e+002
5.297882e+002,2.637024e+002
5.307524e+002,2.634403e+002
5.317167e+002,2.658990e+002
5.326809e+002,2.720080e+002
5.336451e+002,2.771658e+002
5.346094e+002,2.797582e+002
5.355736e+002,2.807899e+002
5.365378e+002,2.828346e+002
5.375021e+002,2.874593e+002
5.384663e+002,2.925307e+002
5.394305e+002,2.981403e+002
5.403948e+002,3.036799e+002
5.413590e+002,3.084122e+002
5.423232e+002,3.116722e+002
5.432875e+002,3.140753e+002
5.442517e+002,3.170632e+002
5.452159e+002,3.208766e+002
5.461802e+002,3.254206e+002
5.471444e+002,3.301442e+002
5.481086e+002,3.339365e+002
5.490729e+002,3.341428e+002
5.500371e+002,3.322017e+002
5.510013e+002,3.313460e+002
5.519656e+002,3.330394e+002
5.529298e+002,3.368959e+002
5.538940e+002,3.401604e+002
5.548583e+002,3.419915e+002
5.558225e+002,3.421547e+002
5.567867e+002,3.402964e+002
5.577510e+002,3.372094e+002
5.587152e+002,3.341781e+002
5.596794e+002,3.318369e+002
5.606437e+002,3.305865e+002
5.616079e+002,3.308214e+002
5.625721e+002,3.315225e+002
5.635364e+002,3.312169e+002
5.645006e+002,3.286249e+002
5.654648e+002,3.240231e+002
5.664291e+002,3.199299e+002
5.673933e+002,3.170846e+002
5.683575e+002,3.164120e+002
5.693218e+002,3.186801e+002
5.702860e+002,3.236336e+002
5.712502e+002,3.248641e+002
5.722145e+002,3.208184e+002
5.731787e+002,3.156120e+002
5.741429e+002,3.106067e+002
5.751072e+002,3.062262e+002
5.760714e+002,3.023028e+002
5.770356e+002,2.983377e+002
5.779999e+002,2.952647e+002
5.789641e+002,2.928123e+002
5.799283e+002,2.908978e+002
5.808926e+002,2.899489e+002
5.818568e+002,2.909261e+002
5.828210e+002,2.928301e+002
5.837853e+002,2.909998e+002
5.847495e+002,2.856105e+002
5.857137e+002,2.799423e+002
5.866780e+002,2.772970e+002
5.876422e+002,2.786840e+002
5.886064e+002,2.790413e+002
5.895707e+002,2.787447e+002
5.905349e+002,2.776396e+002
5.914991e+002,2.748492e+002
5.924634e+002,2.703205e+002
5.934276e+002,2.661277e+002
5.943918e+002,2.648130e+002
5.953560e+002,2.639444e+002
5.963203e+002,2.619236e+002
5.972845e+002,2.588151e+002
5.982487e+002,2.558046e+002
5.992130e+002,2.547887e+002
6.001772e+002,2.561216e+002
6.011414e+002,2.570577e+002
6.021057e+002,2.568812e+002
6.030699e+002,2.549664e+002
6.040341e+002,2.506433e+002
6.049984e+002,2.429839e+002
6.059626e+002,2.371238e+002
6.069268e+002,2.342757e+002
6.078911e+002,2.327926e+002
6.088553e+002,2.315648e+002
6.098195e+002,2.299850e+002
6.107838e+002,2.278714e+002
6.117480e+002,2.254908e+002
6.127122e+002,2.232615e+002
6.136765e+002,2.211832e+002
6.146407e+002,2.189599e+002
6.156049e+002,2.161093e+002
6.165692e+002,2.121000e+002
6.175334e+002,2.073624e+002
6.184976e+002,2.038765e+002
6.194619e+002,2.020246e+002
6.204261e+002,2.011242e+002
6.213903e+002,2.004381e+002
6.223546e+002,2.004188e+002
6.233188e+002,1.981494e+002
6.242830e+002,1.907969e+002
6.252473e+002,1.841240e+002
6.262115e+002,1.826211e+002
6.271757e+002,1.868079e+002
6.281400e+002,1.905011e+002
6.291042e+002,1.880039e+002
6.300684e+002,1.841717e+002
6.310327e+002,1.813458e+002
6.319969e+002,1.797717e+002
6.329611e+002,1.783366e+002
6.339254e+002,1.753794e+002
6.348896e+002,1.706199e+002
6.358538e+002,1.666604e+002
6.368181e+002,1.639154e+002
6.377823e+002,1.617219e+002
6.387465e+002,1.590244e+002
6.397108e+002,1.551205e+002
6.406750e+002,1.534613e+002
6.416392e+002,1.555534e+002
6.426035e+002,1.571261e+002
6.435677e+002,1.558999e+002
6.445319e+002,1.519986e+002
6.454962e+002,1.480889e+002
6.464604e+002,1.464470e+002
6.474246e+002,1.454073e+002
6.483889e+002,1.434810e+002
6.493531e+002,1.406464e+002
6.503173e+002,1.377336e+002
6.512816e+002,1.359795e+002
6.522458e+002,1.355545e+002
6.532100e+002,1.347284e+002
6.541743e+002,1.337995e+002
6.551385e+002,1.325735e+002
6.561027e+002,1.303650e+002
6.570670e+002,1.266193e+002
6.580312e+002,1.241400e+002
6.589954e+002,1.241853e+002
6.599597e+002,1.236378e+002
6.609239e+002,1.215155e+002
6.618881e+002,1.183132e+002
6.628524e+002,1.154333e+002
6.638166e+002,1.137600e+002
6.647808e+002,1.127664e+002
6.657451e+002,1.119449e+002
6.667093e+002,1.109306e+002
6.676735e+002,1.091147e+002
6.686378e+002,1.059827e+002
6.696020e+002,1.017193e+002
6.705662e+002,1.003136e+002
6.715305e+002,1.026538e+002
6.724947e+002,1.042667e+002
6.734589e+002,1.026723e+002
6.744232e+002,9.834904e+001
6.753874e+002,9.515902e+001
6.763516e+002,9.431101e+001
6.773159e+002,9.369339e+001
6.782801e+002,9.255664e+001
6.792443e+002,9.101074e+001
6.802086e+002,8.965758e+001
6.811728e+002,8.915156e+001
6.821370e+002,8.832594e+001
6.831013e+002,8.529881e+001
6.840655e+002,8.145685e+001
6.850297e+002,7.908977e+001
6.859940e+002,7.949104e+001
6.869582e+002,8.189535e+001
6.879224e+002,8.216511e+001
6.888867e+002,7.930984e+001
6.898509e+002,7.618790e+001
6.908151e+002,7.326478e+001
6.917794e+002,7.076778e+001
6.927436e+002,6.883492e+001
6.937078e+002,6.724950e+001
6.946721e+002,6.641259e+001
6.956363e+002,6.730943e+001
6.966005e+002,6.862091e+001
6.975648e+002,6.888049e+001
6.985290e+002,6.729508e+001
6.994932e+002,6.441058e+001
7.004575e+002,6.097075e+001
7.014217e+002,5.761378e+001
7.023859e+002,5.541445e+001
7.033502e+002,5.482282e+001
7.043144e+002,5.531913e+001
7.052786e+002,5.548166e+001
7.062429e+002,5.463240e+001
7.072071e+002,5.373666e+001
7.081713e+002,5.306997e+001
7.091356e+002,5.268267e+001
7.100998e+002,5.262433e+001
7.110640e+002,5.280120e+001
7.120283e+002,5.235524e+001
7.129925e+002,5.050587e+001
7.139567e+002,4.830248e+001
7.149210e+002,4.602565e+001
7.158852e+002,4.393183e+001
7.168494e+002,4.242387e+001
7.178137e+002,4.221764e+001
7.187779e+002,4.310306e+001
7.197421e+002,4.262946e+001
7.207064e+002,4.046808e+001
7.216706e+002,3.839653e+001
7.226348e+002,3.846509e+001
7.235991e+002,4.138738e+001
7.245633e+002,4.326394e+001
7.255275e+002,4.301621e+001
7.264918e+002,4.213747e+001
7.274560e+002,4.102935e+001
7.284202e+002,4.003063e+001
7.293845e+002,3.947959e+001
7.303487e+002,3.960552e+001
7.313129e+002,3.977721e+001
7.322772e+002,3.958846e+001
7.332414e+002,3.910355e+001
7.342056e+002,3.833193e+001
7.351699e+002,3.737779e+001
7.361341e+002,3.662402e+001
7.370983e+002,3.755569e+001
7.380626e+002,4.003680e+001
7.390268e+002,4.122441e+001
7.399910e+002,3.967495e+001
7.409553e+002,3.690744e+001
7.419195e+002,3.647482e+001
7.428837e+002,3.990392e+001
7.438480e+002,4.172857e+001
7.448122e+002,4.061283e+001
7.457764e+002,3.889672e+001
7.467407e+002,3.829491e+001
7.477049e+002,3.933035e+001
7.486691e+002,4.131248e+001
7.496334e+002,4.373203e+001
7.505976e+002,4.552197e+001
7.515618e+002,4.538287e+001
7.525261e+002,4.346318e+001
7.534903e+002,4.156745e+001
7.544545e+002,4.234448e+001
7.554188e+002,4.710331e+001
7.563830e+002,5.052630e+001
7.573472e+002,5.148075e+001
7.583115e+002,5.130610e+001
7.592757e+002,5.048213e+001
7.602399e+002,4.954773e+001
7.612042e+002,5.016842e+001
7.621684e+002,5.402711e+001
7.631326e+002,5.732421e+001
7.640969e+002,5.848884e+001
7.650611e+002,5.816534e+001
7.660253e+002,5.756222e+001
7.669896e+002,5.764164e+001
7.679538e+002,5.864931e+001
7.689180e+002,6.046543e+001
7.698823e+002,6.213017e+001
7.708465e+002,6.275465e+001
7.718107e+002,6.227609e+001
7.727750e+002,6.132381e+001
7.737392e+002,6.084655e+001
7.747034e+002,6.073004e+001
7.756677e+002,6.140599e+001
7.766319e+002,6.345832e+001
7.775961e+002,6.543110e+001
7.785604e+002,6.590727e+001
7.795246e+002,6.453802e+001
7.804888e+002,6.282568e+001
7.814531e+002,6.170571e+001
7.824173e+002,6.105673e+001
7.833815e+002,6.103493e+001
7.843458e+002,6.172495e+001
7.853100e+002,6.311021e+001
7.862742e+002,6.506844e+001
7.872385e+002,6.724930e+001
7.882027e+002,6.739669e+001
7.891669e+002,6.471600e+001
7.901312e+002,6.179261e+001
7.910954e+002,6.071209e+001
7.920596e+002,6.156642e+001
7.930239e+002,6.188881e+001
7.939881e+002,6.004211e+001
7.949523e+002,5.852058e+001
7.959166e+002,5.798413e+001
7.968808e+002,5.797221e+001
7.978450e+002,5.795427e+001
7.988093e+002,5.769992e+001
7.997735e+002,5.731866e+001
8.007377e+002,5.655078e+001
8.017020e+002,5.580894e+001
8.026662e+002,5.623761e+001
8.036304e+002,5.821478e+001
8.045947e+002,6.057241e+001
8.055589e+002,6.096628e+001
8.065231e+002,5.825039e+001
8.074874e+002,5.597295e+001
8.084516e+002,5.400896e+001
8.094158e+002,5.251682e+001
8.103801e+002,5.238994e+001
8.113443e+002,5.368986e+001
8.123085e+002,5.452583e+001
8.132728e+002,5.255556e+001
8.142370e+002,4.992586e+001
8.152012e+002,4.765110e+001
8.161655e+002,4.559776e+001
8.171297e+002,4.394051e+001
8.180939e+002,4.310215e+001
8.190582e+002,4.331071e+001
8.200224e+002,4.317634e+001
8.209866e+002,4.233102e+001
8.219509e+002,4.133821e+001
8.229151e+002,4.022019e+001
8.238793e+002,3.884062e+001
8.248436e+002,3.698025e+001
8.258078e+002,3.426573e+001
8.267720e+002,3.226029e+001
8.277363e+002,3.095833e+001
8.287005e+002,3.014956e+001
8.296647e+002,3.062361e+001
8.306290e+002,3.214799e+001
8.315932e+002,3.274522e+001
8.325574e+002,2.949557e+001
8.335217e+002,2.487426e+001
8.344859e+002,2.356786e+001
8.354501e+002,2.507247e+001
8.364144e+002,2.677982e+001
8.373786e+002,2.668551e+001
8.383428e+002,2.501019e+001
8.393071e+002,2.346423e+001
8.402713e+002,2.145903e+001
8.412355e+002,2.041071e+001
8.421998e+002,2.136456e+001
8.431640e+002,2.289988e+001
8.441282e+002,2.270848e+001
8.450925e+002,1.971818e+001
8.460567e+002,1.709907e+001
8.470209e+002,1.736305e+001
8.479852e+002,1.853399e+001
8.489494e+002,1.947933e+001
8.499136e+002,1.988991e+001
8.508779e+002,1.981897e+001
8.518421e+002,1.919001e+001
8.528063e+002,1.796375e+001
8.537706e+002,1.748013e+001
8.547348e+002,1.814152e+001
8.556990e+002,1.857870e+001
8.566633e+002,1.726731e+001
8.576275e+002,1.448246e+001
8.585917e+002,1.348098e+001
8.595560e+002,1.705545e+001
8.605202e+002,1.955984e+001
8.614844e+002,1.906219e+001
8.624487e+002,1.735523e+001
8.634129e+002,1.608129e+001
8.643771e+002,1.569069e+001
8.653414e+002,1.548939e+001
8.663056e+002,1.528856e+001
8.672698e+002,1.549616e+001
8.682341e+002,1.554760e+001
8.691983e+002,1.505344e+001
8.701625e+002,1.462675e+001
8.711268e+002,1.526449e+001
8.720910e+002,1.715660e+001
8.730552e+002,1.745110e+001
8.740195e+002,1.702609e+001
8.749837e+002,1.633561e+001
8.759479e+002,1.422586e+001
8.769122e+002,1.147681e+001
8.778764e+002,1.005849e+001
8.788406e+002,1.102539e+001
8.798049e+002,1.183676e+001
8.807691e+002,1.033310e+001
8.817333e+002,8.439278e+000
8.826976e+002,8.167259e+000
8.836618e+002,9.859760e+000
8.846260e+002,1.212590e+001
8.855903e+002,1.268097e+001
8.865545e+002,1.101292e+001
8.875187e+002,1.063697e+001
8.884830e+002,1.242213e+001
8.894472e+002,1.437743e+001
8.904114e+002,1.559169e+001
8.913757e+002,1.618067e+001
8.923399e+002,1.635264e+001
8.933041e+002,1.539287e+001
8.942684e+002,1.427586e+001
8.952326e+002,1.338892e+001
8.961968e+002,1.287256e+001
8.971611e+002,1.305363e+001
8.981253e+002,1.405994e+001
8.990895e+002,1.552588e+001
9.000538e+002,1.669620e+001
9.010180e+002,1.742015e+001
9.019822e+002,1.787320e+001
9.029465e+002,1.804388e+001
9.039107e+002,1.834467e+001
9.048749e+002,1.924431e+001
9.058392e+002,2.071576e+001
9.068034e+002,2.155444e+001
9.077676e+002,2.047068e+001
9.087319e+002,2.045164e+001
9.096961e+002,2.340714e+001
9.106603e+002,2.749371e+001
9.116246e+002,2.978547e+001
9.125888e+002,2.894518e+001
9.135530e+002,2.757777e+001
9.145173e+002,2.940009e+001
9.154815e+002,3.248038e+001
9.164457e+002,3.516515e+001
9.174100e+002,3.737474e+001
9.183742e+002,3.877857e+001
9.193384e+002,3.855757e+001
9.203027e+002,3.630297e+001
9.212669e+002,3.611104e+001
9.222311e+002,3.845705e+001
9.231954e+002,4.038146e+001
9.241596e+002,4.140113e+001
9.251238e+002,4.234686e+001
9.260881e+002,4.439925e+001
9.270523e+002,4.799307e+001
9.280165e+002,5.141224e+001
9.289808e+002,5.312045e+001
9.299450e+002,5.435800e+001
9.309092e+002,5.594513e+001
9.318735e+002,5.793953e+001
9.328377e+002,6.005500e+001
9.338019e+002,6.207335e+001
9.347662e+002,6.396043e+001
9.357304e+002,6.504727e+001
9.366946e+002,6.560394e+001
9.376589e+002,6.631170e+001
9.386231e+002,6.686887e+001
9.395873e+002,6.724364e+001
9.405516e+002,6.797836e+001
9.415158e+002,6.964716e+001
9.424800e+002,7.116005e+001
9.434443e+002,7.190149e+001
9.444085e+002,7.261519e+001
9.453727e+002,7.364168e+001
9.463370e+002,7.507379e+001
9.473012e+002,7.694832e+001
9.482654e+002,7.928607e+001
9.492297e+002,8.148099e+001
9.501939e+002,8.203337e+001
9.511581e+002,8.152170e+001
9.521224e+002,8.152379e+001
9.530866e+002,8.294920e+001
9.540508e+002,8.489120e+001
9.550151e+002,8.518773e+001
9.559793e+002,8.275132e+001
9.569435e+002,8.027888e+001
9.579078e+002,7.911928e+001
9.588720e+002,7.886951e+001
9.598362e+002,7.897055e+001
9.608005e+002,7.929648e+001
9.617647e+002,8.013300e+001
9.627289e+002,8.178451e+001
9.636932e+002,8.386818e+001
9.646574e+002,8.618626e+001
9.656216e+002,8.818494e+001
9.665859e+002,8.811186e+001
9.675501e+002,8.507929e+001
9.685143e+002,8.133601e+001
9.694786e+002,8.141747e+001
9.704428e+002,8.720686e+001
9.714070e+002,9.223267e+001
9.723713e+002,9.543900e+001
9.733355e+002,9.751524e+001
9.742997e+002,9.873288e+001
9.752640e+002,9.989032e+001
9.762282e+002,1.020555e+002
9.771924e+002,1.056029e+002
9.781567e+002,1.088732e+002
9.791209e+002,1.098967e+002
9.800851e+002,1.098208e+002
9.810494e+002,1.100793e+002
9.820136e+002,1.112360e+002
9.829778e+002,1.131560e+002
9.839421e+002,1.154296e+002
9.849063e+002,1.177383e+002
9.858705e+002,1.188873e+002
9.868348e+002,1.193821e+002
9.877990e+002,1.200636e+002
9.887632e+002,1.207383e+002
9.897275e+002,1.215527e+002
9.906917e+002,1.228108e+002
9.916559e+002,1.243213e+002
9.926202e+002,1.248764e+002
9.935844e+002,1.238677e+002
9.945486e+002,1.226988e+002
9.955129e+002,1.226545e+002
9.964771e+002,1.236801e+002
9.974413e+002,1.242470e+002
9.984056e+002,1.226255e+002
9.993698e+002,1.190337e+002
1.000334e+003,1.189601e+002
1.001298e+003,1.258980e+002
1.002263e+003,1.301285e+002
1.003227e+003,1.283701e+002
1.004191e+003,1.244850e+002
1.005155e+003,1.227849e+002
1.006119e+003,1.237566e+002
1.007084e+003,1.252496e+002
1.008048e+003,1.273104e+002
1.009012e+003,1.292829e+002
1.009976e+003,1.296792e+002
1.010941e+003,1.291976e+002
1.011905e+003,1.297560e+002
1.012869e+003,1.324308e+002
1.013833e+003,1.360165e+002
1.014798e+003,1.376566e+002
1.015762e+003,1.373611e+002
1.016726e+003,1.377848e+002
1.017690e+003,1.382731e+002
1.018654e+003,1.398874e+002
1.019619e+003,1.438538e+002
1.020583e+003,1.496173e+002
1.021547e+003,1.542879e+002
1.022511e+003,1.564205e+002
1.023476e+003,1.579591e+002
1.024440e+003,1.601100e+002
1.025404e+003,1.627310e+002
1.026368e+003,1.657806e+002
1.027333e+003,1.690463e+002
1.028297e+003,1.719880e+002
1.029261e+003,1.737598e+002
1.030225e+003,1.741930e+002
1.031190e+003,1.752072e+002
1.032154e+003,1.776454e+002
1.033118e+003,1.805743e+002
1.034082e+003,1.830270e+002
1.035047e+003,1.853272e+002
1.036011e+003,1.888835e+002
1.036975e+003,1.944626e+002
1.037939e+003,1.981722e+002
1.038903e+003,1.971965e+002
1.039868e+003,1.968599e+002
1.040832e+003,2.003049e+002
1.041796e+003,2.063305e+002
1.042760e+003,2.119099e+002
1.043725e+003,2.151575e+002
1.044689e+003,2.166778e+002
1.045653e+003,2.178091e+002
1.046617e+003,2.185822e+002
1.047582e+003,2.202771e+002
1.048546e+003,2.241268e+002
1.049510e+003,2.287981e+002
1.050474e+003,2.323877e+002
1.051438e+003,2.345912e+002
1.052403e+003,2.372790e+002
1.053367e+003,2.406329e+002
1.054331e+003,2.443512e+002
1.055295e+003,2.489839e+002
1.056260e+003,2.539635e+002
1.057224e+003,2.589778e+002
1.058188e+003,2.638719e+002
1.059152e+003,2.683018e+002
1.060117e+003,2.716598e+002
1.061081e+003,2.742105e+002
1.062045e+003,2.774229e+002
1.063009e+003,2.807971e+002
1.063974e+003,2.841799e+002
1.064938e+003,2.886026e+002
1.065902e+003,2.936063e+002
1.066866e+003,2.968750e+002
1.067830e+003,2.969141e+002
1.068795e+003,2.985040e+002
1.069759e+003,3.048550e+002
1.070723e+003,3.112879e+002
1.071687e+003,3.165812e+002
1.072652e+003,3.207396e+002
1.073616e+003,3.231944e+002
1.074580e+003,3.234553e+002
1.075544e+003,3.230969e+002
1.076509e+003,3.253781e+002
1.077473e+003,3.303510e+002
1.078437e+003,3.362451e+002
1.079401e+003,3.435091e+002
1.080365e+003,3.503143e+002
1.081330e+003,3.549065e+002
1.082294e+003,3.574104e+002
1.083258e+003,3.594597e+002
1.084222e+003,3.612601e+002
1.085187e+003,3.625819e+002
1.086151e+003,3.631357e+002
1.087115e+003,3.636952e+002
1.088079e+003,3.646401e+002
1.089043e+003,3.659762e+002
1.090008e+003,3.676453e+002
1.090972e+003,3.696893e+002
1.091936e+003,3.718375e+002
1.092900e+003,3.732354e+002
1.093865e+003,3.739529e+002
1.094829e+003,3.747090e+002
1.095793e+003,3.763621e+002
1.096757e+003,3.776717e+002
1.097722e+003,3.764724e+002
1.098686e+003,3.723194e+002
1.099650e+003,3.683892e+002
1.100614e+003,3.657100e+002
1.101578e+003,3.642859e+002
1.102543e+003,3.655107e+002
1.103507e+003,3.665717e+002
1.104471e+003,3.636472e+002
1.105435e+003,3.564384e+002
1.106400e+003,3.487736e+002
1.107364e+003,3.449681e+002
1.108328e+003,3.443718e+002
1.109292e+003,3.420641e+002
1.110257e+003,3.383049e+002
1.111221e+003,3.348898e+002
1.112185e+003,3.318200e+002
1.113149e+003,3.284858e+002
1.114114e+003,3.247482e+002
1.115078e+003,3.210020e+002
1.116042e+003,3.164717e+002
1.117006e+003,3.094990e+002
1.117970e+003,3.037643e+002
1.118935e+003,3.014580e+002
1.119899e+003,3.000786e+002
1.120863e+003,2.968752e+002
1.121827e+003,2.912487e+002
1.122792e+003,2.845577e+002
1.123756e+003,2.778898e+002
1.124720e+003,2.708284e+002
1.125684e+003,2.643427e+002
1.126649e+003,2.591505e+002
1.127613e+003,2.549261e+002
1.128577e+003,2.517275e+002
1.129541e+003,2.490174e+002
1.130505e+003,2.462412e+002
1.131470e+003,2.433488e+002
1.132434e+003,2.390764e+002
1.133398e+003,2.319919e+002
1.134362e+003,2.252997e+002
1.135327e+003,2.198894e+002
1.136291e+003,2.155951e+002
1.137255e+003,2.124636e+002
1.138219e+003,2.104178e+002
1.139184e+003,2.088931e+002
1.140148e+003,2.070109e+002
1.141112e+003,2.043364e+002
1.142076e+003,2.002723e+002
1.143041e+003,1.950449e+002
1.144005e+003,1.901671e+002
1.144969e+003,1.860629e+002
1.145933e+003,1.825892e+002
1.146897e+003,1.796383e+002
1.147862e+003,1.770044e+002
1.148826e+003,1.737457e+002
1.149790e+003,1.690278e+002
1.150754e+003,1.646591e+002
1.151719e+003,1.623364e+002
1.152683e+003,1.608888e+002
1.153647e+003,1.581568e+002
1.154611e+003,1.535192e+002
1.155576e+003,1.485090e+002
1.156540e+003,1.451929e+002
1.157504e+003,1.431843e+002
1.158468e+003,1.403259e+002
1.159432e+003,1.374001e+002
1.160397e+003,1.337209e+002
1.161361e+003,1.280884e+002
1.162325e+003,1.227903e+002
1.163289e+003,1.208826e+002
1.164254e+003,1.222748e+002
1.165218e+003,1.229527e+002
1.166182e+003,1.212519e+002
1.167146e+003,1.181214e+002
1.168111e+003,1.135390e+002
1.169075e+003,1.083425e+002
1.170039e+003,1.040100e+002
1.171003e+003,1.010707e+002
1.171968e+003,9.924945e+001
1.172932e+003,9.842424e+001
1.173896e+003,9.884029e+001
1.174860e+003,9.762123e+001
1.175824e+003,9.259344e+001
1.176789e+003,8.823714e+001
1.177753e+003,8.525948e+001
1.178717e+003,8.316937e+001
1.179681e+003,8.191927e+001
1.180646e+003,8.112549e+001
1.181610e+003,7.925565e+001
1.182574e+003,7.497013e+001
1.183538e+003,7.062868e+001
1.184503e+003,7.030205e+001
1.185467e+003,7.191905e+001
1.186431e+003,7.144569e+001
1.187395e+003,6.784012e+001
1.188359e+003,6.359823e+001
1.189324e+003,6.170788e+001
1.190288e+003,6.222809e+001
1.191252e+003,6.224437e+001
1.192216e+003,6.199085e+001
1.193181e+003,6.016803e+001
1.194145e+003,5.426268e+001
1.195109e+003,4.863189e+001
1.196073e+003,4.732030e+001
1.197038e+003,4.909774e+001
1.198002e+003,4.974777e+001
1.198966e+003,4.704329e+001
1.199930e+003,4.317038e+001
1.200895e+003,4.120505e+001
1.201859e+003,4.089259e+001
1.202823e+003,4.125955e+001
1.203787e+003,4.238613e+001
1.204751e+003,4.266759e+001
1.205716e+003,4.061810e+001
1.206680e+003,3.708397e+001
1.207644e+003,3.444312e+001
1.208608e+003,3.288996e+001
1.209573e+003,3.113677e+001
1.210537e+003,2.844818e+001
1.211501e+003,2.665002e+001
1.212465e+003,2.716696e+001
1.213430e+003,2.886515e+001
1.214394e+003,2.982290e+001
1.215358e+003,2.905852e+001
1.216322e+003,2.696569e+001
1.217286e+003,2.441672e+001
1.218251e+003,2.174339e+001
1.219215e+003,1.980131e+001
1.220179e+003,1.883101e+001
1.221143e+003,1.851327e+001
1.222108e+003,1.915815e+001
1.223072e+003,2.008323e+001
1.224036e+003,2.016703e+001
1.225000e+003,1.923903e+001
1.225965e+003,1.855722e+001
1.226929e+003,1.885904e+001
1.227893e+003,1.845038e+001
1.228857e+003,1.726344e+001
1.229822e+003,1.590674e+001
1.230786e+003,1.369875e+001
1.231750e+003,1.075601e+001
1.232714e+003,8.676216e+000
1.233678e+003,8.913967e+000
1.234643e+003,1.078609e+001
1.235607e+003,1.193670e+001
1.236571e+003,1.296112e+001
1.237535e+003,1.315728e+001
1.238500e+003,1.105458e+001
1.239464e+003,9.343468e+000
1.240428e+003,9.199833e+000
1.241392e+003,9.975365e+000
1.242357e+003,1.117458e+001
1.243321e+003,1.288915e+001
1.244285e+003,1.409962e+001
1.245249e+003,1.346124e+001
1.246214e+003,1.198531e+001
1.247178e+003,1.114846e+001
1.248142e+003,1.055518e+001
1.249106e+003,9.861294e+000
1.250070e+003,9.117092e+000
1.251035e+003,8.585022e+000
1.251999e+003,8.537853e+000
1.252963e+003,8.958862e+000
1.253927e+003,9.124786e+000
1.254892e+003,8.877842e+000
1.255856e+003,8.922867e+000
1.256820e+003,9.937721e+000
1.257784e+003,1.058768e+001
1.258749e+003,9.318737e+000
1.259713e+003,6.749535e+000
1.260677e+003,4.810318e+000
1.261641e+003,4.623028e+000
1.262605e+003,5.569874e+000
1.263570e+003,6.857452e+000
1.264534e+003,8.544121e+000
1.265498e+003,9.227467e+000
1.266462e+003,8.583218e+000
1.267427e+003,7.914959e+000
1.268391e+003,7.618382e+000
1.269355e+003,7.236267e+000
1.270319e+003,6.193184e+000
1.271284e+003,4.639519e+000
1.272248e+003,3.877945e+000
1.273212e+003,5.143139e+000
1.274176e+003,7.152943e+000
1.275141e+003,7.880924e+000
1.276105e+003,7.698299e+000
1.277069e+003,8.086510e+000
1.278033e+003,9.435215e+000
1.278997e+003,1.064052e+001
1.279962e+003,1.066539e+001
1.280926e+003,1.002677e+001
1.281890e+003,9.826797e+000
1.282854e+003,8.520050e+000
1.283819e+003,7.828762e+000
1.284783e+003,9.940971e+000
1.285747e+003,1.094977e+001
1.286711e+003,8.175217e+000
1.287676e+003,3.939770e+000
1.288640e+003,1.771313e+000
1.289604e+003,2.323414e+000
1.290568e+003,3.403507e+000
1.291532e+003,3.126038e+000
1.292497e+003,2.444916e+000
1.293461e+003,4.200050e+000
1.294425e+003,7.969383e+000
1.295389e+003,1.037889e+001
1.296354e+003,1.014696e+001
1.297318e+003,8.402065e+000
1.298282e+003,5.525620e+000
1.299246e+003,1.858986e+000
1.300211e+003,4.210892e-001
1.301175e+003,2.761250e+000
1.302139e+003,5.206608e+000
1.303103e+003,6.215057e+000
1.304068e+003,6.267914e+000
1.305032e+003,5.302074e+000
1.305996e+003,3.976589e+000
1.306960e+003,3.479332e+000
1.307924e+003,4.306759e+000
1.308889e+003,5.541451e+000
1.309853e+003,5.544487e+000
1.310817e+003,3.800312e+000
1.311781e+003,2.462055e+000
1.312746e+003,3.312317e+000
1.313710e+003,4.150715e+000
1.314674e+003,3.994766e+000
1.315638e+003,3.972824e+000
1.316603e+003,4.854427e+000
1.317567e+003,6.016464e+000
1.318531e+003,6.620373e+000
1.319495e+003,6.989334e+000
1.320459e+003,7.511715e+000
1.321424e+003,7.593033e+000
1.322388e+003,7.177746e+000
1.323352e+003,6.901531e+000
1.324316e+003,6.815487e+000
1.325281e+003,6.700241e+000
1.326245e+003,6.409008e+000
1.327209e+003,6.153091e+000
1.328173e+003,6.372738e+000
1.329138e+003,7.049820e+000
1.330102e+003,7.168652e+000
1.331066e+003,6.593674e+000
1.332030e+003,6.353516e+000
1.332995e+003,6.350208e+000
1.333959e+003,6.350174e+000
1.334923e+003,6.247883e+000
1.335887e+003,6.030521e+000
1.336851e+003,5.660362e+000
1.337816e+003,5.400288e+000
1.338780e+003,6.153130e+000
1.339744e+003,8.977852e+000
1.340708e+003,1.323175e+001
1.341673e+003,1.409146e+001
1.342637e+003,9.767914e+000
1.343601e+003,6.541031e+000
1.344565e+003,5.940586e+000
1.345530e+003,6.467075e+000
1.346494e+003,7.500557e+000
1.347458e+003,8.501793e+000
1.348422e+003,7.844189e+000
1.349386e+003,4.686626e+000
1.350351e+003,2.344345e+000
1.351315e+003,4.619354e+000
1.352279e+003,8.821892e+000
1.353243e+003,1.059960e+001
1.354208e+003,1.042263e+001
1.355172e+003,9.848064e+000
1.356136e+003,9.061859e+000
1.357100e+003,8.221745e+000
1.358065e+003,8.024239e+000
1.359029e+003,8.471489e+000
1.359993e+003,8.023819e+000
1.360957e+003,6.185745e+000
1.361922e+003,5.063892e+000
1.362886e+003,6.097847e+000
1.363850e+003,6.926876e+000
1.364814e+003,5.335846e+000
1.365778e+003,2.739902e+000
1.366743e+003,1.872093e+000
1.367707e+003,3.308147e+000
1.368671e+003,5.028000e+000
1.369635e+003,5.096088e+000
1.370600e+003,4.188332e+000
1.371564e+003,4.139191e+000
1.372528e+003,4.949036e+000
1.373492e+003,5.539253e+000
1.374457e+003,5.425533e+000
1.375421e+003,5.273819e+000
1.376385e+003,5.765339e+000
1.377349e+003,6.588924e+000
1.378313e+003,7.263199e+000
1.379278e+003,7.525703e+000
1.380242e+003,7.031593e+000
1.381206e+003,5.637558e+000
1.382170e+003,3.944675e+000
1.383135e+003,1.855282e+000
1.384099e+003,0.000000e+000
1.385063e+003,7.081680e-001
1.386027e+003,4.181393e+000
1.386992e+003,6.999439e+000
1.387956e+003,6.852745e+000
1.388920e+003,5.653778e+000
1.389884e+003,7.141987e+000
1.390849e+003,1.151353e+001
1.391813e+003,1.370378e+001
1.392777e+003,1.048940e+001
1.393741e+003,6.927349e+000
1.394705e+003,6.816261e+000
1.395670e+003,8.118359e+000
1.396634e+003,8.344624e+000
1.397598e+003,7.281197e+000
1.398562e+003,6.340855e+000
1.399527e+003,6.555702e+000
1.400491e+003,7.455215e+000
1.401455e+003,7.854343e+000
1.402419e+003,7.659576e+000
1.403384e+003,8.270695e+000
1.404348e+003,1.064497e+001
1.405312e+003,1.095966e+001
1.406276e+003,8.799774e+000
1.407240e+003,6.901768e+000
1.408205e+003,5.677567e+000
1.409169e+003,4.902134e+000
1.410133e+003,4.742218e+000
1.411097e+003,5.180119e+000
1.412062e+003,5.730362e+000
1.413026e+003,6.365910e+000
1.413990e+003,7.363617e+000
1.414954e+003,7.760780e+000
1.415919e+003,6.954971e+000
1.416883e+003,7.465004e+000
1.417847e+003,1.091239e+001
1.418811e+003,1.322395e+001
1.419776e+003,1.132637e+001
1.420740e+003,7.905651e+000
1.421704e+003,7.375832e+000
1.422668e+003,9.965500e+000
1.423632e+003,1.178268e+001
1.424597e+003,1.083434e+001
1.425561e+003,9.200668e+000
1.426525e+003,9.239826e+000
1.427489e+003,1.000485e+001
1.428454e+003,9.887108e+000
1.429418e+003,8.863819e+000
1.430382e+003,8.363094e+000
1.431346e+003,8.977943e+000
1.432311e+003,9.830750e+000
1.433275e+003,1.032147e+001
1.434239e+003,1.103605e+001
1.435203e+003,1.202532e+001
1.436167e+003,1.265379e+001
1.437132e+003,1.334303e+001
1.438096e+003,1.490608e+001
1.439060e+003,1.562787e+001
1.440024e+003,1.404794e+001
1.440989e+003,1.185305e+001
1.441953e+003,1.141198e+001
1.442917e+003,1.300905e+001
1.443881e+003,1.504999e+001
1.444846e+003,1.640396e+001
1.445810e+003,1.735435e+001
1.446774e+003,1.782193e+001
1.447738e+003,1.733098e+001
1.448703e+003,1.624706e+001
1.449667e+003,1.364962e+001
1.450631e+003,1.197996e+001
1.451595e+003,1.320908e+001
1.452559e+003,1.500769e+001
1.453524e+003,1.457722e+001
1.454488e+003,1.246319e+001
1.455452e+003,1.133968e+001
1.456416e+003,1.234988e+001
1.457381e+003,1.381329e+001
1.458345e+003,1.363167e+001
1.459309e+003,1.207648e+001
1.460273e+003,1.196464e+001
1.461238e+003,1.460985e+001
1.462202e+003,1.616422e+001
1.463166e+003,1.499493e+001
1.464130e+003,1.375623e+001
1.465094e+003,1.370280e+001
1.466059e+003,1.396740e+001
1.467023e+003,1.374590e+001
1.467987e+003,1.319790e+001
1.468951e+003,1.253292e+001
1.469916e+003,1.185445e+001
1.470880e+003,1.197074e+001
1.471844e+003,1.327989e+001
1.472808e+003,1.480416e+001
1.473773e+003,1.648997e+001
1.474737e+003,1.885495e+001
1.475701e+003,1.937366e+001
1.476665e+003,1.533717e+001
1.477630e+003,1.077228e+001
1.478594e+003,1.076168e+001
1.479558e+003,1.405716e+001
1.480522e+003,1.594593e+001
1.481486e+003,1.582919e+001
1.482451e+003,1.551083e+001
1.483415e+003,1.599487e+001
1.484379e+003,1.627070e+001
1.485343e+003,1.501324e+001
1.486308e+003,1.330581e+001
1.487272e+003,1.319925e+001
1.488236e+003,1.488092e+001
1.489200e+003,1.621304e+001
1.490165e+003,1.521535e+001
1.491129e+003,1.316430e+001
1.492093e+003,1.382520e+001
1.493057e+003,1.779870e+001
1.494021e+003,1.924471e+001
1.494986e+003,1.574715e+001
1.495950e+003,1.369403e+001
1.496914e+003,1.591348e+001
1.497878e+003,1.851760e+001
1.498843e+003,1.841900e+001
1.499807e+003,1.721369e+001
1.500771e+003,1.847369e+001
1.501735e+003,2.275997e+001
1.502700e+003,2.663315e+001
1.503664e+003,2.681721e+001
1.504628e+003,2.436423e+001
1.505592e+003,2.302340e+001
1.506557e+003,2.344696e+001
1.507521e+003,2.420448e+001
1.508485e+003,2.528297e+001
1.509449e+003,2.609757e+001
1.510413e+003,2.628965e+001
1.511378e+003,2.614877e+001
1.512342e+003,2.601543e+001
1.513306e+003,2.603740e+001
1.514270e+003,2.639345e+001
1.515235e+003,2.692557e+001
1.516199e+003,2.680318e+001
1.517163e+003,2.527880e+001
1.518127e+003,2.300970e+001
1.519092e+003,2.172971e+001
1.520056e+003,2.149750e+001
1.521020e+003,2.115967e+001
1.521984e+003,2.090611e+001
1.522948e+003,2.023796e+001
1.523913e+003,1.880265e+001
1.524877e+003,1.769581e+001
1.525841e+003,1.777492e+001
1.526805e+003,1.869226e+001
1.527770e+003,1.961562e+001
1.528734e+003,2.003194e+001
1.529698e+003,1.972559e+001
1.530662e+003,1.876796e+001
1.531627e+003,1.766413e+001
1.532591e+003,1.717344e+001
1.533555e+003,1.739464e+001
1.534519e+003,1.771994e+001
1.535484e+003,1.885442e+001
1.536448e+003,1.917681e+001
1.537412e+003,1.666714e+001
1.538376e+003,1.388347e+001
1.539340e+003,1.444450e+001
1.540305e+003,1.734461e+001
1.541269e+003,1.815523e+001
1.542233e+003,1.535083e+001
1.543197e+003,1.229318e+001
1.544162e+003,1.176382e+001
1.545126e+003,1.247529e+001
1.546090e+003,1.213613e+001
1.547054e+003,1.173207e+001
1.548019e+003,1.280400e+001
1.548983e+003,1.484631e+001
1.549947e+003,1.675920e+001
1.550911e+003,1.863435e+001
1.551875e+003,2.010548e+001
1.552840e+003,2.127471e+001
1.553804e+003,2.224244e+001
1.554768e+003,2.171246e+001
1.555732e+003,1.887100e+001
1.556697e+003,1.622679e+001
1.557661e+003,1.562307e+001
1.558625e+003,1.599725e+001
1.559589e+003,1.618169e+001
1.560554e+003,1.610740e+001
1.561518e+003,1.502489e+001
1.562482e+003,1.254570e+001
1.563446e+003,1.140352e+001
1.564411e+003,1.473550e+001
1.565375e+003,1.886641e+001
1.566339e+003,1.868718e+001
1.567303e+003,1.538365e+001
1.568267e+003,1.360714e+001
1.569232e+003,1.406309e+001
1.570196e+003,1.504008e+001
1.571160e+003,1.619752e+001
1.572124e+003,1.682998e+001
1.573089e+003,1.614943e+001
1.574053e+003,1.508952e+001
1.575017e+003,1.461106e+001
1.575981e+003,1.462557e+001
1.576946e+003,1.485606e+001
1.577910e+003,1.519480e+001
1.578874e+003,1.488227e+001
1.579838e+003,1.310598e+001
1.580802e+003,1.100331e+001
1.581767e+003,1.069102e+001
1.582731e+003,1.189549e+001
1.583695e+003,1.348861e+001
1.584659e+003,1.598308e+001
1.585624e+003,1.716930e+001
1.586588e+003,1.416273e+001
1.587552e+003,1.075766e+001
1.588516e+003,1.093343e+001
1.589481e+003,1.402691e+001
1.590445e+003,1.711694e+001
1.591409e+003,1.915641e+001
1.592373e+003,1.982836e+001
1.593338e+003,1.848693e+001
1.594302e+003,1.607516e+001
1.595266e+003,1.459733e+001
1.596230e+003,1.408719e+001
1.597194e+003,1.369519e+001
1.598159e+003,1.266498e+001
1.599123e+003,1.258367e+001
1.600087e+003,1.600001e+001
1.601051e+003,1.950282e+001
1.602016e+003,1.965672e+001
1.602980e+003,1.740717e+001
1.603944e+003,1.520903e+001
1.604908e+003,1.395662e+001
1.605873e+003,1.357729e+001
1.606837e+003,1.394929e+001
1.607801e+003,1.510660e+001
1.608765e+003,1.724307e+001
1.609729e+003,1.972004e+001
1.610694e+003,2.048330e+001
1.611658e+003,1.929066e+001
1.612622e+003,1.841551e+001
1.613586e+003,1.976073e+001
1.614551e+003,2.092020e+001
1.615515e+003,1.825415e+001
1.616479e+003,1.446130e+001
1.617443e+003,1.404526e+001
1.618408e+003,1.683471e+001
1.619372e+003,1.890544e+001
1.620336e+003,1.854152e+001
1.621300e+003,1.781783e+001
1.622265e+003,1.903205e+001
1.623229e+003,2.134469e+001
1.624193e+003,2.226144e+001
1.625157e+003,2.161615e+001
1.626121e+003,2.106075e+001
1.627086e+003,2.120216e+001
1.628050e+003,2.121513e+001
1.629014e+003,2.010125e+001
1.629978e+003,1.865348e+001
1.630943e+003,1.783869e+001
1.631907e+003,1.750172e+001
1.632871e+003,1.718846e+001
1.633835e+003,1.699731e+001
1.634800e+003,1.707427e+001
1.635764e+003,1.721383e+001
1.636728e+003,1.810184e+001
1.637692e+003,2.141854e+001
1.638656e+003,2.597136e+001
1.639621e+003,2.675035e+001
1.640585e+003,2.277981e+001
1.641549e+003,1.899309e+001
1.642513e+003,1.749924e+001
1.643478e+003,1.780806e+001
1.644442e+003,2.034878e+001
1.645406e+003,2.315901e+001
1.646370e+003,2.317258e+001
1.647335e+003,2.070292e+001
1.648299e+003,1.935371e+001
1.649263e+003,2.068595e+001
1.650227e+003,2.250467e+001
1.651192e+003,2.344410e+001
1.652156e+003,2.348622e+001
1.653120e+003,2.197974e+001
1.654084e+003,1.931991e+001
1.655048e+003,1.821494e+001
1.656013e+003,1.935731e+001
1.656977e+003,2.093240e+001
1.657941e+003,2.187576e+001
1.658905e+003,2.219568e+001
1.659870e+003,2.260859e+001
1.660834e+003,2.316107e+001
1.661798e+003,2.267428e+001
1.662762e+003,2.073215e+001
1.663727e+003,2.003352e+001
1.664691e+003,2.289310e+001
1.665655e+003,2.575204e+001
1.666619e+003,2.512342e+001
1.667583e+003,2.285506e+001
1.668548e+003,2.229401e+001
1.669512e+003,2.322043e+001
1.670476e+003,2.361246e+001
1.671440e+003,2.320668e+001
1.672405e+003,2.234257e+001
1.673369e+003,2.051078e+001
1.674333e+003,1.853236e+001
1.675297e+003,1.838338e+001
1.676262e+003,1.975087e+001
1.677226e+003,2.121458e+001
1.678190e+003,2.285173e+001
1.679154e+003,2.397202e+001
1.680119e+003,2.373326e+001
1.681083e+003,2.340111e+001
1.682047e+003,2.453439e+001
1.683011e+003,2.621543e+001
1.683975e+003,2.642856e+001
1.684940e+003,2.540033e+001
1.685904e+003,2.534363e+001
1.686868e+003,2.710924e+001
1.687832e+003,2.913422e+001
1.688797e+003,2.975489e+001
1.689761e+003,2.898759e+001
1.690725e+003,2.777667e+001
1.691689e+003,2.632347e+001
1.692654e+003,2.542451e+001
1.693618e+003,2.591592e+001
1.694582e+003,2.664674e+001
1.695546e+003,2.645175e+001
1.696510e+003,2.605283e+001
1.697475e+003,2.645600e+001
1.698439e+003,2.755086e+001
1.699403e+003,2.929079e+001
1.700367e+003,3.124870e+001
1.701332e+003,3.183898e+001
1.702296e+003,3.032084e+001
1.703260e+003,2.855804e+001
1.704224e+003,2.868286e+001
1.705189e+003,2.998118e+001
1.706153e+003,3.040630e+001
1.707117e+003,2.954796e+001
1.708081e+003,2.842958e+001
1.709046e+003,2.755276e+001
1.710010e+003,2.836658e+001
1.710974e+003,3.157492e+001
1.711938e+003,3.434873e+001
1.712902e+003,3.495985e+001
1.713867e+003,3.386038e+001
1.714831e+003,3.173696e+001
1.715795e+003,2.962414e+001
1.716759e+003,2.895240e+001
1.717724e+003,3.018352e+001
1.718688e+003,3.217054e+001
1.719652e+003,3.360939e+001
1.720616e+003,3.436584e+001
1.721581e+003,3.457386e+001
1.722545e+003,3.429676e+001
1.723509e+003,3.391831e+001
1.724473e+003,3.326915e+001
1.725438e+003,3.319846e+001
1.726402e+003,3.382415e+001
1.727366e+003,3.457275e+001
1.728330e+003,3.597483e+001
1.729294e+003,3.720471e+001
1.730259e+003,3.682586e+001
1.731223e+003,3.511770e+001
1.732187e+003,3.357596e+001
1.733151e+003,3.267117e+001
1.734116e+003,3.226641e+001
1.735080e+003,3.296715e+001
1.736044e+003,3.435691e+001
1.737008e+003,3.442315e+001
1.737973e+003,3.310216e+001
1.738937e+003,3.283254e+001
1.739901e+003,3.426431e+001
1.740865e+003,3.482369e+001
1.741829e+003,3.288664e+001
1.742794e+003,3.104393e+001
1.743758e+003,3.212955e+001
1.744722e+003,3.455004e+001
1.745686e+003,3.591228e+001
1.746651e+003,3.615047e+001
1.747615e+003,3.596231e+001
1.748579e+003,3.528664e+001
1.749543e+003,3.443645e+001
1.750508e+003,3.354088e+001
1.751472e+003,3.303452e+001
1.752436e+003,3.348284e+001
1.753400e+003,3.418712e+001
1.754365e+003,3.346700e+001
1.755329e+003,3.154545e+001
1.756293e+003,3.137490e+001
1.757257e+003,3.436675e+001
1.758221e+003,3.781762e+001
1.759186e+003,3.932042e+001
1.760150e+003,3.936047e+001
1.761114e+003,3.803986e+001
1.762078e+003,3.438486e+001
1.763043e+003,3.262639e+001
1.764007e+003,3.433286e+001
1.764971e+003,3.498505e+001
1.765935e+003,3.455177e+001
1.766900e+003,3.385949e+001
1.767864e+003,3.233663e+001
1.768828e+003,3.100087e+001
1.769792e+003,3.148895e+001
1.770756e+003,3.325782e+001
1.771721e+003,3.422558e+001
1.772685e+003,3.349893e+001
1.773649e+003,3.215635e+001
1.774613e+003,3.149989e+001
1.775578e+003,3.168150e+001
1.776542e+003,3.230631e+001
1.777506e+003,3.321986e+001
1.778470e+003,3.373880e+001
1.779435e+003,3.372664e+001
1.780399e+003,3.296325e+001
1.781363e+003,3.083874e+001
1.782327e+003,2.986332e+001
1.783292e+003,3.140656e+001
1.784256e+003,3.284784e+001
1.785220e+003,3.198436e+001
1.786184e+003,3.036584e+001
1.787148e+003,3.082799e+001
1.788113e+003,3.337429e+001
1.789077e+003,3.526101e+001
1.790041e+003,3.494429e+001
1.791005e+003,3.361686e+001
1.791970e+003,3.300675e+001
1.792934e+003,3.266255e+001
1.793898e+003,3.040768e+001
1.794862e+003,2.666933e+001
1.795827e+003,2.523748e+001
1.796791e+003,2.678376e+001
1.797755e+003,2.887846e+001
1.798719e+003,3.076576e+001
1.799683e+003,3.199592e+001
1.800648e+003,3.174511e+001
1.801612e+003,3.019379e+001
1.802576e+003,2.802900e+001
1.803540e+003,2.506034e+001
1.804505e+003,2.369096e+001
1.805469e+003,2.601541e+001
1.806433e+003,2.866045e+001
1.807397e+003,3.085949e+001
1.808362e+003,3.181162e+001
1.809326e+003,3.011779e+001
1.810290e+003,2.759795e+001
1.811254e+003,2.685231e+001
1.812219e+003,2.770212e+001
1.813183e+003,2.820174e+001
1.814147e+003,2.747709e+001
1.815111e+003,2.655540e+001
1.816075e+003,2.679867e+001
1.817040e+003,2.793473e+001
1.818004e+003,2.841673e+001
1.818968e+003,2.828046e+001
1.819932e+003,2.929543e+001
1.820897e+003,3.153352e+001
1.821861e+003,3.143589e+001
1.822825e+003,2.680265e+001
1.823789e+003,2.343099e+001
1.824754e+003,2.572123e+001
1.825718e+003,2.891050e+001
1.826682e+003,2.841999e+001
1.827646e+003,2.596523e+001
1.828610e+003,2.528431e+001
1.829575e+003,2.663767e+001
1.830539e+003,2.752628e+001
1.831503e+003,2.685372e+001
1.832467e+003,2.588596e+001
1.833432e+003,2.532645e+001
1.834396e+003,2.508533e+001
1.835360e+003,2.535665e+001
1.836324e+003,2.655281e+001
1.837289e+003,2.920475e+001
1.838253e+003,3.247203e+001
1.839217e+003,3.331729e+001
1.840181e+003,3.076329e+001
1.841146e+003,2.773295e+001
1.842110e+003,2.666823e+001
1.843074e+003,2.717050e+001
1.844038e+003,2.813643e+001
1.845002e+003,2.941539e+001
1.845967e+003,3.004400e+001
1.846931e+003,2.938224e+001
1.847895e+003,2.961834e+001
1.848859e+003,3.055584e+001
1.849824e+003,3.105215e+001
1.850788e+003,3.176085e+001
1.851752e+003,3.198746e+001
1.852716e+003,3.099585e+001
1.853681e+003,2.986671e+001
1.854645e+003,2.946447e+001
1.855609e+003,2.976753e+001
1.856573e+003,3.072652e+001
1.857537e+003,3.210039e+001
1.858502e+003,3.314972e+001
1.859466e+003,3.400726e+001
1.860430e+003,3.454574e+001
1.861394e+003,3.275790e+001
1.862359e+003,2.875215e+001
1.863323e+003,2.538194e+001
1.864287e+003,2.269608e+001
1.865251e+003,2.186280e+001
1.866216e+003,2.412167e+001
1.867180e+003,2.668770e+001
1.868144e+003,2.707555e+001
1.869108e+003,2.649658e+001
1.870073e+003,2.712608e+001
1.871037e+003,2.893549e+001
1.872001e+003,3.090797e+001
1.872965e+003,3.338694e+001
1.873929e+003,3.499292e+001
1.874894e+003,3.520660e+001
1.875858e+003,3.389437e+001
1.876822e+003,2.951981e+001
1.877786e+003,2.598684e+001
1.878751e+003,2.698936e+001
1.879715e+003,2.989616e+001
1.880679e+003,3.066402e+001
1.881643e+003,2.945664e+001
1.882608e+003,2.890860e+001
1.883572e+003,2.988788e+001
1.884536e+003,3.103327e+001
1.885500e+003,3.119073e+001
1.886464e+003,3.051766e+001
1.887429e+003,2.963711e+001
1.888393e+003,2.894592e+001
1.889357e+003,2.830318e+001
1.890321e+003,2.746376e+001
1.891286e+003,2.801360e+001
1.892250e+003,3.055547e+001
1.893214e+003,3.157646e+001
1.894178e+003,2.915088e+001
1.895143e+003,2.719184e+001
1.896107e+003,2.936394e+001
1.897071e+003,3.320935e+001
1.898035e+003,3.371429e+001
1.899000e+003,3.086380e+001
1.899964e+003,2.910557e+001
1.900928e+003,3.046786e+001
1.901892e+003,3.288299e+001
1.902856e+003,3.593738e+001
1.903821e+003,3.817240e+001
1.904785e+003,3.831524e+001
1.905749e+003,3.716943e+001
1.906713e+003,3.608511e+001
1.907678e+003,3.529416e+001
1.908642e+003,3.408297e+001
1.909606e+003,3.230999e+001
1.910570e+003,3.055835e+001
1.911535e+003,2.926706e+001
1.912499e+003,2.857635e+001
1.913463e+003,2.829570e+001
1.914427e+003,2.806186e+001
1.915391e+003,2.872263e+001
1.916356e+003,3.046127e+001
1.917320e+003,2.942944e+001
1.918284e+003,2.533282e+001
1.919248e+003,2.511643e+001
1.920213e+003,3.049890e+001
1.921177e+003,3.506506e+001
1.922141e+003,3.600034e+001
1.923105e+003,3.516026e+001
1.924070e+003,3.416837e+001
1.925034e+003,3.282800e+001
1.925998e+003,2.999176e+001
1.926962e+003,2.553435e+001
1.927927e+003,2.409937e+001
1.928891e+003,2.820014e+001
1.929855e+003,3.148777e+001
1.930819e+003,3.252740e+001
1.931783e+003,3.258946e+001
1.932748e+003,3.187800e+001
1.933712e+003,3.136519e+001
1.934676e+003,3.235663e+001
1.935640e+003,3.369906e+001
1.936605e+003,3.280581e+001
1.937569e+003,2.971222e+001
1.938533e+003,2.740974e+001
1.939497e+003,2.774909e+001
1.940462e+003,2.895877e+001
1.941426e+003,2.879600e+001
1.942390e+003,2.750954e+001
1.943354e+003,2.505784e+001
1.944318e+003,2.200077e+001
1.945283e+003,2.243941e+001
1.946247e+003,2.657065e+001
1.947211e+003,2.825930e+001
1.948175e+003,2.602520e+001
1.949140e+003,2.457526e+001
1.950104e+003,2.603093e+001
1.951068e+003,2.820301e+001
1.952032e+003,2.940327e+001
1.952997e+003,2.966570e+001
1.953961e+003,2.826648e+001
1.954925e+003,2.480730e+001
1.955889e+003,2.359481e+001
1.956854e+003,2.691733e+001
1.957818e+003,2.851826e+001
1.958782e+003,2.656688e+001
1.959746e+003,2.549961e+001
1.960710e+003,2.580239e+001
1.961675e+003,2.680552e+001
1.962639e+003,2.992392e+001
1.963603e+003,3.325579e+001
1.964567e+003,3.334650e+001
1.965532e+003,3.055901e+001
1.966496e+003,2.802492e+001
1.967460e+003,2.659822e+001
1.968424e+003,2.599731e+001
1.969389e+003,2.694954e+001
1.970353e+003,2.759559e+001
1.971317e+003,2.559953e+001
1.972281e+003,2.322191e+001
1.973245e+003,2.436759e+001
1.974210e+003,2.736163e+001
1.975174e+003,2.708789e+001
1.976138e+003,2.365416e+001
1.977102e+003,2.191461e+001
1.978067e+003,2.365008e+001
1.979031e+003,2.633535e+001
1.979995e+003,2.799521e+001
1.980959e+003,2.846779e+001
1.981924e+003,2.704430e+001
1.982888e+003,2.445726e+001
1.983852e+003,2.459048e+001
1.984816e+003,2.739818e+001
1.985781e+003,2.867570e+001
1.986745e+003,2.826454e+001
1.987709e+003,2.720584e+001
1.988673e+003,2.496168e+001
1.989637e+003,2.297355e+001
1.990602e+003,2.234196e+001
1.991566e+003,2.234908e+001
1.992530e+003,2.236619e+001
1.993494e+003,2.298161e+001
1.994459e+003,2.510054e+001
1.995423e+003,2.932027e+001
1.996387e+003,3.097248e+001
1.997351e+003,2.725925e+001
1.998316e+003,2.457621e+001
1.999280e+003,2.556667e+001
2.000244e+003,2.706144e+001
2.001208e+003,2.784355e+001
2.002172e+003,2.781434e+001
2.003137e+003,2.585696e+001
2.004101e+003,2.310457e+001
2.005065e+003,2.224064e+001
2.006029e+003,2.357646e+001
2.006994e+003,2.495877e+001
2.007958e+003,2.522344e+001
2.008922e+003,2.496721e+001
2.009886e+003,2.496669e+001
2.010851e+003,2.556455e+001
2.011815e+003,2.751467e+001
2.012779e+003,2.909026e+001
2.013743e+003,2.654046e+001
2.014708e+003,2.185215e+001
2.015672e+003,2.104041e+001
2.016636e+003,2.461157e+001
2.017600e+003,2.849613e+001
2.018564e+003,3.045299e+001
2.019529e+003,2.963047e+001
2.020493e+003,2.521851e+001
2.021457e+003,2.017982e+001
2.022421e+003,1.986071e+001
2.023386e+003,2.324581e+001
2.024350e+003,2.644710e+001
2.025314e+003,2.949706e+001
2.026278e+003,3.056617e+001
2.027243e+003,2.935693e+001
2.028207e+003,2.902713e+001
2.029171e+003,3.086539e+001
2.030135e+003,3.166494e+001
2.031099e+003,2.855473e+001
2.032064e+003,2.464714e+001
2.033028e+003,2.480653e+001
2.033992e+003,2.760514e+001
2.034956e+003,2.775808e+001
2.035921e+003,2.574072e+001
2.036885e+003,2.382977e+001
2.037849e+003,2.044817e+001
2.038813e+003,2.030726e+001
2.039778e+003,2.550111e+001
2.040742e+003,2.900938e+001
2.041706e+003,2.863068e+001
2.042670e+003,2.708868e+001
2.043635e+003,2.567532e+001
2.044599e+003,2.469614e+001
2.045563e+003,2.517330e+001
2.046527e+003,2.682066e+001
2.047491e+003,2.649913e+001
2.048456e+003,2.290902e+001
2.049420e+003,2.124736e+001
2.050384e+003,2.388736e+001
2.051348e+003,2.626569e+001
2.052313e+003,2.699117e+001
2.053277e+003,2.679169e+001
2.054241e+003,2.557284e+001
2.055205e+003,2.456747e+001
2.056170e+003,2.463556e+001
2.057134e+003,2.536043e+001
2.058098e+003,2.693654e+001
2.059062e+003,2.942516e+001
2.060027e+003,3.102380e+001
2.060991e+003,3.049998e+001
2.061955e+003,2.903785e+001
2.062919e+003,2.717853e+001
2.063884e+003,2.519371e+001
2.064848e+003,2.367615e+001
2.065812e+003,2.302911e+001
2.066776e+003,2.337692e+001
2.067740e+003,2.412620e+001
2.068705e+003,2.449802e+001
2.069669e+003,2.454192e+001
2.070633e+003,2.527874e+001
2.071597e+003,2.687809e+001
2.072562e+003,2.694616e+001
2.073526e+003,2.366246e+001
2.074490e+003,1.994344e+001
2.075454e+003,1.987461e+001
2.076418e+003,2.215371e+001
2.077383e+003,2.307115e+001
2.078347e+003,2.234185e+001
2.079311e+003,2.140598e+001
2.080275e+003,2.142321e+001
2.081240e+003,2.226006e+001
2.082204e+003,2.321992e+001
2.083168e+003,2.408432e+001
2.084132e+003,2.464156e+001
2.085096e+003,2.472356e+001
2.086061e+003,2.477355e+001
2.087025e+003,2.476559e+001
2.087989e+003,2.341179e+001
2.088953e+003,2.062804e+001
2.089918e+003,1.944509e+001
2.090882e+003,2.023722e+001
2.091846e+003,2.073964e+001
2.092810e+003,2.051995e+001
2.093775e+003,2.098125e+001
2.094739e+003,2.312772e+001
2.095703e+003,2.422198e+001
2.096667e+003,2.172680e+001
2.097632e+003,1.818991e+001
2.098596e+003,1.721299e+001
2.099560e+003,1.869589e+001
2.100524e+003,2.087280e+001
2.101489e+003,2.363116e+001
2.102453e+003,2.418492e+001
2.103417e+003,2.070191e+001
2.104381e+003,1.881708e+001
2.105345e+003,2.029386e+001
2.106310e+003,2.169646e+001
2.107274e+003,2.147575e+001
2.108238e+003,2.142884e+001
2.109202e+003,2.338271e+001
2.110167e+003,2.544995e+001
2.111131e+003,2.454256e+001
2.112095e+003,2.111153e+001
2.113059e+003,1.843866e+001
2.114023e+003,1.781336e+001
2.114988e+003,1.874078e+001
2.115952e+003,2.075821e+001
2.116916e+003,2.197941e+001
2.117880e+003,2.294167e+001
2.118845e+003,2.238212e+001
2.119809e+003,1.853532e+001
2.120773e+003,1.547517e+001
2.121737e+003,1.658517e+001
2.122702e+003,1.962014e+001
2.123666e+003,2.136596e+001
2.124630e+003,2.156006e+001
2.125594e+003,2.182414e+001
2.126559e+003,2.278596e+001
2.127523e+003,2.227369e+001
2.128487e+003,1.840044e+001
2.129451e+003,1.509692e+001
2.130416e+003,1.347417e+001
2.131380e+003,1.347799e+001
2.132344e+003,1.645450e+001
2.133308e+003,2.009444e+001
2.134272e+003,2.223765e+001
2.135237e+003,2.234788e+001
2.136201e+003,1.968776e+001
2.137165e+003,1.538614e+001
2.138129e+003,1.278512e+001
2.139094e+003,1.315930e+001
2.140058e+003,1.444214e+001
2.141022e+003,1.496215e+001
2.141986e+003,1.538161e+001
2.142950e+003,1.727827e+001
2.143915e+003,1.907037e+001
2.144879e+003,1.834352e+001
2.145843e+003,1.640833e+001
2.146807e+003,1.562796e+001
2.147772e+003,1.612059e+001
2.148736e+003,1.693241e+001
2.149700e+003,1.728442e+001
2.150664e+003,1.628674e+001
2.151629e+003,1.380894e+001
2.152593e+003,1.185961e+001
2.153557e+003,1.243462e+001
2.154521e+003,1.373544e+001
2.155486e+003,1.249478e+001
2.156450e+003,1.081789e+001
2.157414e+003,1.330790e+001
2.158378e+003,1.756755e+001
2.159343e+003,1.846163e+001
2.160307e+003,1.652952e+001
2.161271e+003,1.476798e+001
2.162235e+003,1.381043e+001
2.163199e+003,1.253884e+001
2.164164e+003,1.065632e+001
2.165128e+003,9.988071e+000
2.166092e+003,1.240928e+001
2.167056e+003,1.577456e+001
2.168021e+003,1.702250e+001
2.168985e+003,1.636758e+001
2.169949e+003,1.448090e+001
2.170913e+003,1.203243e+001
2.171877e+003,9.936100e+000
2.172842e+003,8.669891e+000
2.173806e+003,8.934120e+000
2.174770e+003,1.036305e+001
2.175734e+003,1.127842e+001
2.176699e+003,1.091806e+001
2.177663e+003,1.051649e+001
2.178627e+003,1.139992e+001
2.179591e+003,1.219587e+001
2.180556e+003,9.656467e+000
2.181520e+003,5.622292e+000
2.182484e+003,5.257587e+000
2.183448e+003,7.415936e+000
2.184413e+003,8.454258e+000
2.185377e+003,8.219494e+000
2.186341e+003,7.556786e+000
2.187305e+003,6.731400e+000
2.188270e+003,6.333355e+000
2.189234e+003,6.770126e+000
2.190198e+003,7.650604e+000
2.191162e+003,8.260853e+000
2.192126e+003,8.345505e+000
2.193091e+003,8.385094e+000
2.194055e+003,8.231785e+000
2.195019e+003,6.617455e+000
2.195983e+003,4.622734e+000
2.196948e+003,5.298767e+000
2.197912e+003,7.829876e+000
2.198876e+003,7.962650e+000
2.199840e+003,5.503300e+000
2.200804e+003,5.202980e+000
2.201769e+003,8.579945e+000
2.202733e+003,1.164451e+001
2.203697e+003,1.174134e+001
2.204661e+003,1.017262e+001
2.205626e+003,7.748840e+000
2.206590e+003,5.571186e+000
2.207554e+003,6.085224e+000
2.208518e+003,7.879391e+000
2.209483e+003,8.254471e+000
2.210447e+003,7.561771e+000
2.211411e+003,6.635838e+000
2.212375e+003,5.739422e+000
2.213340e+003,5.247093e+000
2.214304e+003,5.340805e+000
2.215268e+003,6.153309e+000
2.216232e+003,7.488731e+000
2.217197e+003,8.121620e+000
2.218161e+003,7.002960e+000
2.219125e+003,5.273746e+000
2.220089e+003,4.776985e+000
2.221053e+003,5.353081e+000
2.222018e+003,5.542805e+000
2.222982e+003,5.187149e+000
2.223946e+003,5.657951e+000
2.224910e+003,7.295910e+000
2.225875e+003,9.388428e+000
2.226839e+003,1.136777e+001
2.227803e+003,1.268455e+001
2.228767e+003,1.295840e+001
2.229731e+003,1.236388e+001
2.230696e+003,1.126678e+001
2.231660e+003,9.367405e+000
2.232624e+003,5.515244e+000
2.233588e+003,1.830975e+000
2.234553e+003,1.771740e+000
2.235517e+003,3.580585e+000
2.236481e+003,3.550545e+000
2.237445e+003,2.025482e+000
2.238410e+003,1.879246e+000
2.239374e+003,3.620373e+000
2.240338e+003,5.637115e+000
2.241302e+003,7.154995e+000
2.242267e+003,8.279472e+000
2.243231e+003,9.089603e+000
2.244195e+003,9.723564e+000
2.245159e+003,1.024147e+001
2.246124e+003,1.033773e+001
2.247088e+003,9.967590e+000
2.248052e+003,8.763992e+000
2.249016e+003,5.220776e+000
2.249980e+003,1.590622e+000
2.250945e+003,2.587582e+000
2.251909e+003,6.982891e+000
2.252873e+003,9.224251e+000
2.253837e+003,8.116039e+000
2.254802e+003,7.754871e+000
2.255766e+003,1.041785e+001
2.256730e+003,1.194104e+001
2.257694e+003,7.781345e+000
2.258658e+003,3.196522e+000
2.259623e+003,2.221596e+000
2.260587e+003,2.773319e+000
2.261551e+003,3.138676e+000
2.262515e+003,3.808884e+000
2.263480e+003,6.609261e+000
2.264444e+003,9.985718e+000
2.265408e+003,1.013187e+001
2.266372e+003,7.166553e+000
2.267337e+003,4.779881e+000
2.268301e+003,4.148869e+000
2.269265e+003,4.012459e+000
2.270229e+003,4.880177e+000
2.271194e+003,6.280891e+000
2.272158e+003,6.663395e+000
2.273122e+003,6.456402e+000
2.274086e+003,5.819935e+000
2.275051e+003,5.723858e+000
2.276015e+003,8.127026e+000
2.276979e+003,1.130342e+001
2.277943e+003,1.250018e+001
2.278907e+003,1.204207e+001
2.279872e+003,1.144221e+001
2.280836e+003,1.068670e+001
2.281800e+003,1.015424e+001
2.282764e+003,1.069579e+001
2.283729e+003,1.071718e+001
2.284693e+003,1.024533e+001
2.285657e+003,9.562996e+000
2.286621e+003,6.849575e+000
2.287585e+003,4.376858e+000
2.288550e+003,4.118168e+000
2.289514e+003,4.959976e+000
2.290478e+003,6.265999e+000
2.291442e+003,7.724220e+000
2.292407e+003,8.471054e+000
2.293371e+003,8.438194e+000
2.294335e+003,8.552780e+000
2.295299e+003,8.824875e+000
2.296264e+003,8.937641e+000
2.297228e+003,8.881992e+000
2.298192e+003,9.440155e+000
2.299156e+003,1.173419e+001
2.300121e+003,1.307044e+001
2.301085e+003,1.114067e+001
2.302049e+003,9.984570e+000
2.303013e+003,1.285963e+001
2.303978e+003,1.657707e+001
2.304942e+003,1.759656e+001
2.305906e+003,1.634948e+001
2.306870e+003,1.382388e+001
2.307834e+003,1.034457e+001
2.308799e+003,8.948502e+000
2.309763e+003,9.990150e+000
2.310727e+003,1.259672e+001
2.311691e+003,1.657204e+001
2.312656e+003,1.837155e+001
2.313620e+003,1.734707e+001
2.314584e+003,1.572723e+001
2.315548e+003,1.438538e+001
2.316512e+003,1.456920e+001
2.317477e+003,1.749580e+001
2.318441e+003,2.058278e+001
2.319405e+003,1.978606e+001
2.320369e+003,1.744575e+001
2.321334e+003,1.917572e+001
2.322298e+003,2.315683e+001
2.323262e+003,2.556590e+001
2.324226e+003,2.721286e+001
2.325191e+003,2.806310e+001
2.326155e+003,2.847491e+001
2.327119e+003,3.121701e+001
2.328083e+003,3.576469e+001
2.329048e+003,3.772917e+001
2.330012e+003,3.604329e+001
2.330976e+003,3.384372e+001
2.331940e+003,3.235059e+001
2.332905e+003,3.147220e+001
2.333869e+003,3.266587e+001
2.334833e+003,3.427870e+001
2.335797e+003,3.468277e+001
2.336761e+003,3.445755e+001
2.337726e+003,3.239899e+001
2.338690e+003,3.029597e+001
2.339654e+003,3.225317e+001
2.340618e+003,3.661696e+001
2.341583e+003,3.898245e+001
2.342547e+003,3.915162e+001
2.343511e+003,3.934060e+001
2.344475e+003,3.983559e+001
2.345439e+003,4.089605e+001
2.346404e+003,4.334412e+001
2.347368e+003,4.475951e+001
2.348332e+003,4.385060e+001
2.349296e+003,4.373080e+001
2.350261e+003,4.656506e+001
2.351225e+003,4.969313e+001
2.352189e+003,5.004756e+001
2.353153e+003,4.994360e+001
2.354118e+003,5.208124e+001
2.355082e+003,5.579082e+001
2.356046e+003,6.089656e+001
2.357010e+003,6.735390e+001
2.357975e+003,6.905182e+001
2.358939e+003,6.400234e+001
2.359903e+003,6.210555e+001
2.360867e+003,6.347613e+001
2.361832e+003,6.486877e+001
2.362796e+003,6.702588e+001
2.363760e+003,6.855330e+001
2.364724e+003,6.886404e+001
2.365688e+003,7.067530e+001
2.366653e+003,7.504330e+001
2.367617e+003,7.925497e+001
2.368581e+003,8.102612e+001
2.369545e+003,8.143526e+001
2.370510e+003,8.227112e+001
2.371474e+003,8.379538e+001
2.372438e+003,8.639854e+001
2.373402e+003,8.958022e+001
2.374366e+003,9.198942e+001
2.375331e+003,9.361979e+001
2.376295e+003,9.396925e+001
2.377259e+003,9.362106e+001
2.378223e+003,9.577382e+001
2.379188e+003,1.005626e+002
2.380152e+003,1.031849e+002
2.381116e+003,1.013973e+002
2.382080e+003,9.962353e+001
2.383045e+003,1.012684e+002
2.384009e+003,1.036059e+002
2.384973e+003,1.048101e+002
2.385937e+003,1.051437e+002
2.386902e+003,1.043690e+002
2.387866e+003,1.040441e+002
2.388830e+003,1.050270e+002
2.389794e+003,1.065700e+002
2.390759e+003,1.083175e+002
2.391723e+003,1.098712e+002
2.392687e+003,1.109780e+002
2.393651e+003,1.120328e+002
2.394615e+003,1.128228e+002
2.395580e+003,1.126931e+002
2.396544e+003,1.128739e+002
2.397508e+003,1.144268e+002
2.398472e+003,1.145787e+002
2.399437e+003,1.118149e+002
2.400401e+003,1.104315e+002
2.401365e+003,1.117036e+002
2.402329e+003,1.139418e+002
2.403293e+003,1.167086e+002
2.404258e+003,1.188096e+002
2.405222e+003,1.191536e+002
2.406186e+003,1.185731e+002
2.407150e+003,1.180654e+002
2.408115e+003,1.176457e+002
2.409079e+003,1.187242e+002
2.410043e+003,1.211390e+002
2.411007e+003,1.219604e+002
2.411972e+003,1.214469e+002
2.412936e+003,1.222914e+002
2.413900e+003,1.243650e+002
2.414864e+003,1.257074e+002
2.415829e+003,1.262889e+002
2.416793e+003,1.279867e+002
2.417757e+003,1.312902e+002
2.418721e+003,1.333468e+002
2.419686e+003,1.318970e+002
2.420650e+003,1.298135e+002
2.421614e+003,1.295365e+002
2.422578e+003,1.303938e+002
2.423542e+003,1.324463e+002
2.424507e+003,1.342873e+002
2.425471e+003,1.349716e+002
2.426435e+003,1.348900e+002
2.427399e+003,1.333591e+002
2.428364e+003,1.309498e+002
2.429328e+003,1.298969e+002
2.430292e+003,1.304803e+002
2.431256e+003,1.302786e+002
2.432220e+003,1.285250e+002
2.433185e+003,1.281592e+002
2.434149e+003,1.303074e+002
2.435113e+003,1.314390e+002
2.436077e+003,1.314703e+002
2.437042e+003,1.309397e+002
2.438006e+003,1.296754e+002
2.438970e+003,1.285643e+002
2.439934e+003,1.282437e+002
2.440899e+003,1.274715e+002
2.441863e+003,1.253674e+002
2.442827e+003,1.226705e+002
2.443791e+003,1.197620e+002
2.444756e+003,1.169596e+002
2.445720e+003,1.164378e+002
2.446684e+003,1.175891e+002
2.447648e+003,1.171066e+002
2.448613e+003,1.155974e+002
2.449577e+003,1.154146e+002
2.450541e+003,1.160714e+002
2.451505e+003,1.150297e+002
2.452469e+003,1.124456e+002
2.453434e+003,1.102275e+002
2.454398e+003,1.084746e+002
2.455362e+003,1.062447e+002
2.456326e+003,1.040489e+002
2.457291e+003,1.039182e+002
2.458255e+003,1.079241e+002
2.459219e+003,1.108432e+002
2.460183e+003,1.081458e+002
2.461147e+003,1.046239e+002
2.462112e+003,1.044618e+002
2.463076e+003,1.049900e+002
2.464040e+003,1.026629e+002
2.465004e+003,9.950515e+001
2.465969e+003,9.932862e+001
2.466933e+003,1.010796e+002
2.467897e+003,1.015843e+002
2.468861e+003,1.004272e+002
2.469826e+003,9.830327e+001
2.470790e+003,9.508946e+001
2.471754e+003,9.440951e+001
2.472718e+003,9.689677e+001
2.473683e+003,9.745615e+001
2.474647e+003,9.494573e+001
2.475611e+003,9.324249e+001
2.476575e+003,9.366167e+001
2.477540e+003,9.365919e+001
2.478504e+003,9.194331e+001
2.479468e+003,8.983269e+001
2.480432e+003,8.833301e+001
2.481396e+003,8.749120e+001
2.482361e+003,8.779018e+001
2.483325e+003,8.875058e+001
2.484289e+003,8.976845e+001
2.485253e+003,8.972238e+001
2.486218e+003,8.680319e+001
2.487182e+003,8.346407e+001
2.488146e+003,8.311954e+001
2.489110e+003,8.420711e+001
2.490074e+003,8.339555e+001
2.491039e+003,8.196338e+001
2.492003e+003,8.410240e+001
2.492967e+003,8.905609e+001
2.493931e+003,8.986530e+001
2.494896e+003,8.592235e+001
2.495860e+003,8.300275e+001
2.496824e+003,8.113580e+001
2.497788e+003,8.095028e+001
2.498753e+003,8.261441e+001
2.499717e+003,8.280977e+001
2.500681e+003,8.068980e+001
2.501645e+003,8.068883e+001
2.502610e+003,8.470467e+001
2.503574e+003,8.746225e+001
2.504538e+003,8.500577e+001
2.505502e+003,8.192383e+001
2.506467e+003,8.340132e+001
2.507431e+003,8.616260e+001
2.508395e+003,8.637478e+001
2.509359e+003,8.550534e+001
2.510323e+003,8.494196e+001
2.511288e+003,8.449031e+001
2.512252e+003,8.376643e+001
2.513216e+003,8.296629e+001
2.514180e+003,8.275562e+001
2.515145e+003,8.274547e+001
2.516109e+003,8.103357e+001
2.517073e+003,7.772376e+001
2.518037e+003,7.760307e+001
2.519001e+003,8.273481e+001
2.519966e+003,8.477429e+001
2.520930e+003,8.252628e+001
2.521894e+003,8.056303e+001
2.522858e+003,7.922916e+001
2.523823e+003,7.856775e+001
2.524787e+003,7.860028e+001
2.525751e+003,7.848326e+001
2.526715e+003,7.786456e+001
2.527680e+003,7.851398e+001
2.528644e+003,8.197104e+001
2.529608e+003,8.492222e+001
2.530572e+003,8.237253e+001
2.531537e+003,7.809381e+001
2.532501e+003,7.859857e+001
2.533465e+003,8.041618e+001
2.534429e+003,7.819403e+001
2.535394e+003,7.586364e+001
2.536358e+003,7.974246e+001
2.537322e+003,8.489305e+001
2.538286e+003,8.282327e+001
2.539250e+003,7.676862e+001
2.540215e+003,7.613916e+001
2.541179e+003,8.084477e+001
2.542143e+003,8.234528e+001
2.543107e+003,8.049933e+001
2.544072e+003,7.911868e+001
2.545036e+003,7.743254e+001
2.546000e+003,7.665750e+001
2.546964e+003,7.694043e+001
2.547928e+003,7.669704e+001
2.548893e+003,7.556163e+001
2.549857e+003,7.592604e+001
2.550821e+003,7.874519e+001
2.551785e+003,8.175426e+001
2.552750e+003,8.349426e+001
2.553714e+003,8.346367e+001
2.554678e+003,8.085896e+001
2.555642e+003,7.800600e+001
2.556607e+003,7.660938e+001
2.557571e+003,7.562857e+001
2.558535e+003,7.491537e+001
2.559499e+003,7.387537e+001
2.560464e+003,7.209071e+001
2.561428e+003,7.072894e+001
2.562392e+003,7.066385e+001
2.563356e+003,7.088841e+001
2.564321e+003,6.999796e+001
2.565285e+003,6.859422e+001
2.566249e+003,6.814042e+001
2.567213e+003,6.821736e+001
2.568177e+003,6.647946e+001
2.569142e+003,6.288565e+001
2.570106e+003,6.223919e+001
2.571070e+003,6.471930e+001
2.572034e+003,6.636143e+001
2.572999e+003,6.667615e+001
2.573963e+003,6.601477e+001
2.574927e+003,6.439738e+001
2.575891e+003,6.282214e+001
2.576855e+003,6.167156e+001
2.577820e+003,6.148080e+001
2.578784e+003,6.407486e+001
2.579748e+003,6.516084e+001
2.580712e+003,5.984177e+001
2.581677e+003,5.602439e+001
2.582641e+003,5.789815e+001
2.583605e+003,5.949137e+001
2.584569e+003,5.790200e+001
2.585534e+003,5.592015e+001
2.586498e+003,5.500073e+001
2.587462e+003,5.479473e+001
2.588426e+003,5.491908e+001
2.589391e+003,5.474141e+001
2.590355e+003,5.335034e+001
2.591319e+003,5.130597e+001
2.592283e+003,5.009875e+001
2.593248e+003,4.947495e+001
2.594212e+003,4.825273e+001
2.595176e+003,4.711319e+001
2.596140e+003,4.799151e+001
2.597104e+003,5.007788e+001
2.598069e+003,5.172561e+001
2.599033e+003,5.251067e+001
2.599997e+003,5.236937e+001
2.600961e+003,5.156325e+001
2.601926e+003,5.047030e+001
2.602890e+003,4.893837e+001
2.603854e+003,4.724667e+001
2.604818e+003,4.414438e+001
2.605782e+003,4.317781e+001
2.606747e+003,4.559830e+001
2.607711e+003,4.772775e+001
2.608675e+003,4.893128e+001
2.609639e+003,4.800380e+001
2.610604e+003,4.464544e+001
2.611568e+003,4.238894e+001
2.612532e+003,4.323025e+001
2.613496e+003,4.506763e+001
2.614461e+003,4.612802e+001
2.615425e+003,4.619265e+001
2.616389e+003,4.514539e+001
2.617353e+003,4.333515e+001
2.618318e+003,3.991747e+001
2.619282e+003,3.760079e+001
2.620246e+003,4.036074e+001
2.621210e+003,4.427125e+001
2.622175e+003,4.386947e+001
2.623139e+003,4.194435e+001
2.624103e+003,4.260400e+001
2.625067e+003,4.414533e+001
2.626031e+003,4.390704e+001
2.626996e+003,4.316671e+001
2.627960e+003,4.339645e+001
2.628924e+003,4.361787e+001
2.629888e+003,4.145638e+001
2.630853e+003,3.768117e+001
2.631817e+003,3.596869e+001
2.632781e+003,3.681330e+001
2.633745e+003,3.723199e+001
2.634709e+003,3.636404e+001
2.635674e+003,3.666788e+001
2.636638e+003,3.863954e+001
2.637602e+003,3.987955e+001
2.638566e+003,4.059830e+001
2.639531e+003,4.171259e+001
2.640495e+003,4.289547e+001
2.641459e+003,4.222181e+001
2.642423e+003,3.930057e+001
2.643388e+003,3.702348e+001
2.644352e+003,3.565133e+001
2.645316e+003,3.518828e+001
2.646280e+003,3.556474e+001
2.647245e+003,3.617757e+001
2.648209e+003,3.727073e+001
2.649173e+003,3.790621e+001
2.650137e+003,3.599541e+001
2.651102e+003,3.463720e+001
2.652066e+003,3.724614e+001
2.653030e+003,3.944715e+001
2.653994e+003,3.950440e+001
2.654958e+003,3.906119e+001
2.655923e+003,3.927428e+001
2.656887e+003,3.919102e+001
2.657851e+003,3.673561e+001
2.658815e+003,3.343203e+001
2.659780e+003,3.115571e+001
2.660744e+003,3.020444e+001
2.661708e+003,3.109444e+001
2.662672e+003,3.333826e+001
2.663636e+003,3.547334e+001
2.664601e+003,3.693970e+001
2.665565e+003,3.545494e+001
2.666529e+003,3.247277e+001
2.667493e+003,3.064512e+001
2.668458e+003,3.010357e+001
2.669422e+003,3.038818e+001
2.670386e+003,3.074063e+001
2.671350e+003,3.131243e+001
2.672315e+003,3.258293e+001
2.673279e+003,3.280922e+001
2.674243e+003,3.096187e+001
2.675207e+003,2.950092e+001
2.676172e+003,2.869815e+001
2.677136e+003,2.784066e+001
2.678100e+003,2.720393e+001
2.679064e+003,2.700259e+001
2.680029e+003,2.676674e+001
2.680993e+003,2.765434e+001
2.681957e+003,2.982665e+001
2.682921e+003,2.984318e+001
2.683885e+003,2.624372e+001
2.684850e+003,2.280952e+001
2.685814e+003,2.229424e+001
2.686778e+003,2.306739e+001
2.687742e+003,2.465490e+001
2.688707e+003,2.572909e+001
2.689671e+003,2.458427e+001
2.690635e+003,2.313235e+001
2.691599e+003,2.243749e+001
2.692563e+003,2.203649e+001
2.693528e+003,2.175039e+001
2.694492e+003,2.175114e+001
2.695456e+003,2.204905e+001
2.696420e+003,2.268184e+001
2.697385e+003,2.378225e+001
2.698349e+003,2.504219e+001
2.699313e+003,2.720512e+001
2.700277e+003,2.849424e+001
2.701242e+003,2.539370e+001
2.702206e+003,2.151579e+001
2.703170e+003,1.991813e+001
2.704134e+003,1.974592e+001
2.705099e+003,2.141109e+001
2.706063e+003,2.306525e+001
2.707027e+003,2.210080e+001
2.707991e+003,2.008334e+001
2.708956e+003,2.004909e+001
2.709920e+003,2.083384e+001
2.710884e+003,2.015207e+001
2.711848e+003,1.897022e+001
2.712813e+003,1.917463e+001
2.713777e+003,2.008258e+001
2.714741e+003,1.886349e+001
2.715705e+003,1.604087e+001
2.716669e+003,1.498109e+001
2.717634e+003,1.564622e+001
2.718598e+003,1.594516e+001
2.719562e+003,1.630774e+001
2.720526e+003,1.696767e+001
2.721490e+003,1.634497e+001
2.722455e+003,1.669687e+001
2.723419e+003,1.905796e+001
2.724383e+003,1.807296e+001
2.725347e+003,1.430729e+001
2.726312e+003,1.217118e+001
2.727276e+003,1.116505e+001
2.728240e+003,9.541954e+000
2.729204e+003,8.247452e+000
2.730169e+003,8.741867e+000
2.731133e+003,1.027233e+001
2.732097e+003,1.207876e+001
2.733061e+003,1.502831e+001
2.734026e+003,1.441222e+001
2.734990e+003,8.908291e+000
2.735954e+003,8.562050e+000
2.736918e+003,1.383170e+001
2.737883e+003,1.651440e+001
2.738847e+003,1.488690e+001
2.739811e+003,1.311961e+001
2.740775e+003,1.279188e+001
2.741740e+003,1.293928e+001
2.742704e+003,1.353172e+001
2.743668e+003,1.374646e+001
2.744632e+003,1.197660e+001
2.745596e+003,1.082264e+001
2.746561e+003,1.054708e+001
2.747525e+003,1.060346e+001
2.748489e+003,1.413864e+001
2.749453e+003,1.485098e+001
2.750417e+003,1.051374e+001
2.751382e+003,6.981339e+000
2.752346e+003,6.372688e+000
2.753310e+003,7.059486e+000
2.754274e+003,7.958057e+000
2.755239e+003,8.362827e+000
2.756203e+003,7.746700e+000
2.757167e+003,6.855762e+000
2.758131e+003,5.754181e+000
2.759096e+003,5.097153e+000
2.760060e+003,5.709877e+000
2.761024e+003,6.896557e+000
2.761988e+003,8.850117e+000
2.762953e+003,1.012598e+001
2.763917e+003,9.635765e+000
2.764881e+003,8.726158e+000
2.765845e+003,8.689884e+000
2.766810e+003,8.610313e+000
2.767774e+003,7.545975e+000
2.768738e+003,6.108570e+000
2.769702e+003,3.486141e+000
2.770667e+003,2.271214e+000
2.771631e+003,6.215759e+000
2.772595e+003,1.014631e+001
2.773559e+003,1.079698e+001
2.774523e+003,9.952759e+000
2.775488e+003,9.208309e+000
2.776452e+003,8.995625e+000
2.777416e+003,7.640533e+000
2.778380e+003,4.674885e+000
2.779344e+003,5.259811e+000
2.780309e+003,8.950611e+000
2.781273e+003,7.813385e+000
2.782237e+003,5.655994e+000
2.783201e+003,7.684238e+000
2.784166e+003,9.416512e+000
2.785130e+003,8.354389e+000
2.786094e+003,6.043953e+000
2.787058e+003,3.188267e+000
2.788023e+003,1.361000e+000
2.788987e+003,2.077156e+000
2.789951e+003,4.317169e+000
2.790915e+003,7.238613e+000
2.791880e+003,1.048248e+001
2.792844e+003,1.034895e+001
2.793808e+003,8.141296e+000
2.794772e+003,6.152679e+000
2.795737e+003,4.170799e+000
2.796701e+003,4.554508e+000
2.797665e+003,6.455959e+000
2.798629e+003,6.868736e+000
2.799594e+003,6.365353e+000
2.800558e+003,6.470898e+000
2.801522e+003,6.894897e+000
2.802486e+003,7.560078e+000
2.803450e+003,7.694725e+000
2.804415e+003,7.323677e+000
2.805379e+003,6.821621e+000
2.806343e+003,7.823265e+000
2.807307e+003,1.092786e+001
2.808271e+003,1.157611e+001
2.809236e+003,8.923515e+000
2.810200e+003,8.022728e+000
2.811164e+003,9.439541e+000
2.812128e+003,7.516735e+000
2.813093e+003,2.176670e+000
2.814057e+003,3.742462e+000
2.815021e+003,1.156933e+001
2.815985e+003,1.108979e+001
2.816950e+003,4.705814e+000
2.817914e+003,3.206757e+000
2.818878e+003,5.353432e+000
2.819842e+003,6.402000e+000
2.820807e+003,6.452194e+000
2.821771e+003,6.587986e+000
2.822735e+003,6.395214e+000
2.823699e+003,6.374294e+000
2.824664e+003,7.452961e+000
2.825628e+003,6.688766e+000
2.826592e+003,3.457573e+000
2.827556e+003,3.232697e+000
2.828521e+003,5.169487e+000
2.829485e+003,4.851006e+000
2.830449e+003,3.297272e+000
2.831413e+003,5.510544e+000
2.832377e+003,1.001395e+001
2.833342e+003,9.924019e+000
2.834306e+003,5.254642e+000
2.835270e+003,2.089405e+000
2.836234e+003,1.754166e+000
2.837198e+003,2.333633e+000
2.838163e+003,4.238884e+000
2.839127e+003,5.054085e+000
2.840091e+003,4.589775e+000
2.841055e+003,6.008995e+000
2.842020e+003,8.740448e+000
2.842984e+003,8.780594e+000
2.843948e+003,6.523968e+000
2.844912e+003,5.890057e+000
2.845877e+003,7.478657e+000
2.846841e+003,8.340542e+000
2.847805e+003,7.581383e+000
2.848769e+003,6.552666e+000
2.849734e+003,4.770081e+000
2.850698e+003,4.266041e+000
2.851662e+003,5.121593e+000
2.852626e+003,6.331558e+000
2.853591e+003,7.903671e+000
2.854555e+003,7.995056e+000
2.855519e+003,6.537594e+000
2.856483e+003,5.775906e+000
2.857448e+003,6.108315e+000
2.858412e+003,6.437588e+000
2.859376e+003,6.975323e+000
2.860340e+003,7.056194e+000
2.861304e+003,5.629234e+000
2.862269e+003,6.087933e+000
2.863233e+003,8.120644e+000
2.864197e+003,9.166267e+000
2.865161e+003,9.692402e+000
2.866125e+003,8.868221e+000
2.867090e+003,6.891624e+000
2.868054e+003,7.530056e+000
2.869018e+003,1.105775e+001
2.869982e+003,1.264029e+001
2.870947e+003,1.160983e+001
2.871911e+003,1.139636e+001
2.872875e+003,1.126251e+001
2.873839e+003,1.078075e+001
2.874804e+003,1.017433e+001
2.875768e+003,1.018367e+001
2.876732e+003,1.078662e+001
2.877696e+003,1.081075e+001
2.878661e+003,1.017841e+001
2.879625e+003,9.710361e+000
2.880589e+003,9.560169e+000
2.881553e+003,9.206337e+000
2.882518e+003,8.445805e+000
2.883482e+003,1.004212e+001
2.884446e+003,1.499480e+001
2.885410e+003,1.600861e+001
2.886375e+003,1.313311e+001
2.887339e+003,1.067044e+001
2.888303e+003,9.543869e+000
2.889267e+003,1.135721e+001
2.890231e+003,1.526910e+001
2.891196e+003,1.798742e+001
2.892160e+003,1.884141e+001
2.893124e+003,1.879010e+001
2.894088e+003,1.771545e+001
2.895052e+003,1.928391e+001
2.896017e+003,2.386644e+001
2.896981e+003,2.556559e+001
2.897945e+003,2.456353e+001
2.898909e+003,2.226904e+001
2.899874e+003,2.013579e+001
2.900838e+003,2.268708e+001
2.901802e+003,2.838752e+001
2.902766e+003,3.003410e+001
2.903731e+003,2.714220e+001
2.904695e+003,2.671689e+001
2.905659e+003,2.906952e+001
2.906623e+003,2.945350e+001
2.907588e+003,2.807812e+001
2.908552e+003,2.871761e+001
2.909516e+003,3.084511e+001
2.910480e+003,3.235392e+001
2.911445e+003,3.323339e+001
2.912409e+003,3.373418e+001
2.913373e+003,3.438631e+001
2.914337e+003,3.670907e+001
2.915302e+003,4.032874e+001
2.916266e+003,4.272256e+001
2.917230e+003,4.398079e+001
2.918194e+003,4.522979e+001
2.919158e+003,4.645112e+001
2.920123e+003,4.738019e+001
2.921087e+003,4.833426e+001
2.922051e+003,5.032280e+001
2.923015e+003,5.263332e+001
2.923979e+003,5.402214e+001
2.924944e+003,5.442546e+001
2.925908e+003,5.357137e+001
2.926872e+003,5.256845e+001
2.927836e+003,5.518356e+001
2.928801e+003,6.028436e+001
2.929765e+003,6.323419e+001
2.930729e+003,6.456755e+001
2.931693e+003,6.455372e+001
2.932658e+003,6.450355e+001
2.933622e+003,6.699522e+001
2.934586e+003,6.996875e+001
2.935550e+003,6.947681e+001
2.936515e+003,6.812929e+001
2.937479e+003,6.969412e+001
2.938443e+003,7.279482e+001
2.939407e+003,7.449583e+001
2.940372e+003,7.523381e+001
2.941336e+003,7.577687e+001
2.942300e+003,7.607205e+001
2.943264e+003,7.588417e+001
2.944229e+003,7.559631e+001
2.945193e+003,7.556226e+001
2.946157e+003,7.560057e+001
2.947121e+003,7.540254e+001
2.948085e+003,7.571712e+001
2.949050e+003,7.758904e+001
2.950014e+003,7.948645e+001
2.950978e+003,7.863068e+001
2.951942e+003,7.713797e+001
2.952906e+003,7.695482e+001
2.953871e+003,7.768826e+001
2.954835e+003,8.017542e+001
2.955799e+003,8.183006e+001
2.956763e+003,8.111734e+001
2.957728e+003,8.014482e+001
2.958692e+003,8.028923e+001
2.959656e+003,7.968794e+001
2.960620e+003,7.637454e+001
2.961585e+003,7.406891e+001
2.962549e+003,7.734933e+001
2.963513e+003,8.120132e+001
2.964477e+003,8.358656e+001
2.965442e+003,8.491922e+001
2.966406e+003,8.532217e+001
2.967370e+003,8.485687e+001
2.968334e+003,8.351868e+001
2.969299e+003,8.255450e+001
2.970263e+003,8.260708e+001
2.971227e+003,8.369376e+001
2.972191e+003,8.602949e+001
2.973156e+003,8.798660e+001
2.974120e+003,8.980421e+001
2.975084e+003,8.872026e+001
2.976048e+003,8.273346e+001
2.977012e+003,8.141814e+001
2.977977e+003,8.610670e+001
2.978941e+003,9.026535e+001
2.979905e+003,9.209290e+001
2.980869e+003,9.213338e+001
2.981833e+003,9.091206e+001
2.982798e+003,9.090685e+001
2.983762e+003,9.326886e+001
2.984726e+003,9.470702e+001
2.985690e+003,9.484939e+001
2.986655e+003,9.490683e+001
2.987619e+003,9.495587e+001
2.988583e+003,9.567189e+001
2.989547e+003,9.677065e+001
2.990512e+003,9.691864e+001
2.991476e+003,9.621510e+001
2.992440e+003,9.586737e+001
2.993404e+003,9.595399e+001
2.994369e+003,9.524654e+001
2.995333e+003,9.381306e+001
2.996297e+003,9.402908e+001
2.997261e+003,9.557718e+001
2.998226e+003,9.665814e+001
2.999190e+003,9.736458e+001
3.000154e+003,9.819189e+001
3.001118e+003,9.888699e+001
3.002083e+003,9.874387e+001
3.003047e+003,9.818679e+001
3.004011e+003,9.836742e+001
3.004975e+003,9.855693e+001
3.005939e+003,9.655746e+001
3.006904e+003,9.391806e+001
3.007868e+003,9.559285e+001
3.008832e+003,9.860454e+001
3.009796e+003,9.855176e+001
3.010760e+003,9.755479e+001
3.011725e+003,9.754370e+001
3.012689e+003,9.825628e+001
3.013653e+003,9.933884e+001
3.014617e+003,1.010598e+002
3.015582e+003,1.037969e+002
3.016546e+003,1.065648e+002
3.017510e+003,1.082004e+002
3.018474e+003,1.090609e+002
3.019439e+003,1.092874e+002
3.020403e+003,1.091150e+002
3.021367e+003,1.085455e+002
3.022331e+003,1.075694e+002
3.023296e+003,1.058585e+002
3.024260e+003,1.060660e+002
3.025224e+003,1.093489e+002
3.026188e+003,1.123504e+002
3.027153e+003,1.129914e+002
3.028117e+003,1.129525e+002
3.029081e+003,1.130441e+002
3.030045e+003,1.128758e+002
3.031010e+003,1.121172e+002
3.031974e+003,1.117365e+002
3.032938e+003,1.118437e+002
3.033902e+003,1.150640e+002
3.034866e+003,1.207692e+002
3.035831e+003,1.223584e+002
3.036795e+003,1.188361e+002
3.037759e+003,1.163117e+002
3.038723e+003,1.164470e+002
3.039688e+003,1.183717e+002
3.040652e+003,1.226576e+002
3.041616e+003,1.221749e+002
3.042580e+003,1.181814e+002
3.043544e+003,1.187557e+002
3.044509e+003,1.226812e+002
3.045473e+003,1.256295e+002
3.046437e+003,1.272049e+002
3.047401e+003,1.278131e+002
3.048366e+003,1.281056e+002
3.049330e+003,1.298088e+002
3.050294e+003,1.320707e+002
3.051258e+003,1.308875e+002
3.052223e+003,1.283522e+002
3.053187e+003,1.301203e+002
3.054151e+003,1.328036e+002
3.055115e+003,1.311070e+002
3.056080e+003,1.291192e+002
3.057044e+003,1.318755e+002
3.058008e+003,1.347066e+002
3.058972e+003,1.331511e+002
3.059937e+003,1.318718e+002
3.060901e+003,1.372796e+002
3.061865e+003,1.431937e+002
3.062829e+003,1.424959e+002
3.063793e+003,1.403552e+002
3.064758e+003,1.383300e+002
3.065722e+003,1.382030e+002
3.066686e+003,1.409665e+002
3.067650e+003,1.424885e+002
3.068615e+003,1.413170e+002
3.069579e+003,1.413956e+002
3.070543e+003,1.446451e+002
3.071507e+003,1.466749e+002
3.072471e+003,1.445528e+002
3.073436e+003,1.434434e+002
3.074400e+003,1.442307e+002
3.075364e+003,1.454185e+002
3.076328e+003,1.468877e+002
3.077293e+003,1.483259e+002
3.078257e+003,1.497239e+002
3.079221e+003,1.516373e+002
3.080185e+003,1.536368e+002
3.081150e+003,1.533349e+002
3.082114e+003,1.507877e+002
3.083078e+003,1.506972e+002
3.084042e+003,1.528111e+002
3.085007e+003,1.532795e+002
3.085971e+003,1.527092e+002
3.086935e+003,1.529132e+002
3.087899e+003,1.533301e+002
3.088864e+003,1.521958e+002
3.089828e+003,1.513231e+002
3.090792e+003,1.540363e+002
3.091756e+003,1.571518e+002
3.092720e+003,1.564300e+002
3.093685e+003,1.536864e+002
3.094649e+003,1.504718e+002
3.095613e+003,1.491564e+002
3.096577e+003,1.551133e+002
3.097542e+003,1.602649e+002
3.098506e+003,1.579626e+002
3.099470e+003,1.556552e+002
3.100434e+003,1.557648e+002
3.101398e+003,1.576328e+002
3.102363e+003,1.607870e+002
3.103327e+003,1.628473e+002
3.104291e+003,1.621723e+002
3.105255e+003,1.613986e+002
3.106220e+003,1.620079e+002
3.107184e+003,1.619195e+002
3.108148e+003,1.607641e+002
3.109112e+003,1.610723e+002
3.110077e+003,1.628987e+002
3.111041e+003,1.647780e+002
3.112005e+003,1.661328e+002
3.112969e+003,1.657631e+002
3.113934e+003,1.640602e+002
3.114898e+003,1.650987e+002
3.115862e+003,1.687072e+002
3.116826e+003,1.722392e+002
3.117791e+003,1.751312e+002
3.118755e+003,1.737207e+002
3.119719e+003,1.705067e+002
3.120683e+003,1.699263e+002
3.121647e+003,1.707053e+002
3.122612e+003,1.705770e+002
3.123576e+003,1.704126e+002
3.124540e+003,1.711511e+002
3.125504e+003,1.726297e+002
3.126469e+003,1.747303e+002
3.127433e+003,1.770918e+002
3.128397e+003,1.801477e+002
3.129361e+003,1.820340e+002
3.130325e+003,1.809444e+002
3.131290e+003,1.791174e+002
3.132254e+003,1.769024e+002
3.133218e+003,1.763962e+002
3.134182e+003,1.783013e+002
3.135147e+003,1.809924e+002
3.136111e+003,1.836582e+002
3.137075e+003,1.849612e+002
3.138039e+003,1.835970e+002
3.139004e+003,1.831112e+002
3.139968e+003,1.837189e+002
3.140932e+003,1.839591e+002
3.141896e+003,1.838292e+002
3.142861e+003,1.837228e+002
3.143825e+003,1.838309e+002
3.144789e+003,1.842673e+002
3.145753e+003,1.852473e+002
3.146718e+003,1.872454e+002
3.147682e+003,1.900582e+002
3.148646e+003,1.936228e+002
3.149610e+003,1.969296e+002
3.150574e+003,1.959671e+002
3.151539e+003,1.943771e+002
3.152503e+003,1.977743e+002
3.153467e+003,2.013663e+002
3.154431e+003,2.012167e+002
3.155396e+003,1.994993e+002
3.156360e+003,1.975022e+002
3.157324e+003,1.964589e+002
3.158288e+003,1.975558e+002
3.159252e+003,1.991272e+002
3.160217e+003,2.005112e+002
3.161181e+003,2.009201e+002
3.162145e+003,1.995113e+002
3.163109e+003,1.997883e+002
3.164074e+003,2.021648e+002
3.165038e+003,2.051691e+002
3.166002e+003,2.079153e+002
3.166966e+003,2.083073e+002
3.167931e+003,2.061380e+002
3.168895e+003,2.042949e+002
3.169859e+003,2.030653e+002
3.170823e+003,2.019407e+002
3.171788e+003,2.012468e+002
3.172752e+003,2.034083e+002
3.173716e+003,2.071283e+002
3.174680e+003,2.106368e+002
3.175645e+003,2.133030e+002
3.176609e+003,2.145612e+002
3.177573e+003,2.144638e+002
3.178537e+003,2.127468e+002
3.179501e+003,2.107919e+002
3.180466e+003,2.105249e+002
3.181430e+003,2.107537e+002
3.182394e+003,2.098256e+002
3.183358e+003,2.098578e+002
3.184323e+003,2.124833e+002
3.185287e+003,2.142636e+002
3.186251e+003,2.144081e+002
3.187215e+003,2.142199e+002
3.188179e+003,2.142819e+002
3.189144e+003,2.152561e+002
3.190108e+003,2.173964e+002
3.191072e+003,2.186716e+002
3.192036e+003,2.186753e+002
3.193001e+003,2.190234e+002
3.193965e+003,2.194698e+002
3.194929e+003,2.172898e+002
3.195893e+003,2.142319e+002
3.196858e+003,2.151244e+002
3.197822e+003,2.177877e+002
3.198786e+003,2.165613e+002
3.199750e+003,2.149445e+002
3.200715e+003,2.187122e+002
3.201679e+003,2.235495e+002
3.202643e+003,2.198113e+002
3.203607e+003,2.154442e+002
3.204572e+003,2.204110e+002
3.205536e+003,2.243494e+002
3.206500e+003,2.216630e+002
3.207464e+003,2.193747e+002
3.208428e+003,2.197306e+002
3.209393e+003,2.206128e+002
3.210357e+003,2.210876e+002
3.211321e+003,2.217626e+002
3.212285e+003,2.229169e+002
3.213250e+003,2.242203e+002
3.214214e+003,2.256421e+002
3.215178e+003,2.271762e+002
3.216142e+003,2.287769e+002
3.217106e+003,2.311216e+002
3.218071e+003,2.328661e+002
3.219035e+003,2.296136e+002
3.219999e+003,2.246170e+002
3.220963e+003,2.249807e+002
3.221928e+003,2.282301e+002
3.222892e+003,2.300413e+002
3.223856e+003,2.308001e+002
3.224820e+003,2.303707e+002
3.225785e+003,2.303109e+002
3.226749e+003,2.323406e+002
3.227713e+003,2.345590e+002
3.228677e+003,2.365208e+002
3.229642e+003,2.366224e+002
3.230606e+003,2.344746e+002
3.231570e+003,2.334131e+002
3.232534e+003,2.350130e+002
3.233499e+003,2.354556e+002
3.234463e+003,2.322020e+002
3.235427e+003,2.336612e+002
3.236391e+003,2.395155e+002
3.237355e+003,2.409280e+002
3.238320e+003,2.391332e+002
3.239284e+003,2.384237e+002
3.240248e+003,2.392477e+002
3.241212e+003,2.416805e+002
3.242177e+003,2.448861e+002
3.243141e+003,2.481063e+002
3.244105e+003,2.505115e+002
3.245069e+003,2.505851e+002
3.246033e+003,2.489750e+002
3.246998e+003,2.437475e+002
3.247962e+003,2.415417e+002
3.248926e+003,2.467024e+002
3.249890e+003,2.497644e+002
3.250855e+003,2.480004e+002
3.251819e+003,2.468356e+002
3.252783e+003,2.483417e+002
3.253747e+003,2.496588e+002
3.254712e+003,2.496823e+002
3.255676e+003,2.497614e+002
3.256640e+003,2.498701e+002
3.257604e+003,2.529363e+002
3.258569e+003,2.576716e+002
3.259533e+003,2.602099e+002
3.260497e+003,2.609301e+002
3.261461e+003,2.612072e+002
3.262426e+003,2.602993e+002
3.263390e+003,2.564875e+002
3.264354e+003,2.538622e+002
3.265318e+003,2.592479e+002
3.266282e+003,2.660058e+002
3.267247e+003,2.675842e+002
3.268211e+003,2.671144e+002
3.269175e+003,2.650016e+002
3.270139e+003,2.636277e+002
3.271104e+003,2.635016e+002
3.272068e+003,2.654404e+002
3.273032e+003,2.690500e+002
3.273996e+003,2.707675e+002
3.274960e+003,2.696448e+002
3.275925e+003,2.696262e+002
3.276889e+003,2.708549e+002
3.277853e+003,2.723531e+002
3.278817e+003,2.737267e+002
3.279782e+003,2.736465e+002
3.280746e+003,2.728852e+002
3.281710e+003,2.716032e+002
3.282674e+003,2.718805e+002
3.283639e+003,2.757696e+002
3.284603e+003,2.793613e+002
3.285567e+003,2.788350e+002
3.286531e+003,2.773067e+002
3.287496e+003,2.771921e+002
3.288460e+003,2.774294e+002
3.289424e+003,2.779264e+002
3.290388e+003,2.777768e+002
3.291353e+003,2.770558e+002
3.292317e+003,2.777900e+002
3.293281e+003,2.799619e+002
3.294245e+003,2.825453e+002
3.295209e+003,2.846574e+002
3.296174e+003,2.837200e+002
3.297138e+003,2.809505e+002
3.298102e+003,2.823574e+002
3.299066e+003,2.849252e+002
3.300031e+003,2.814634e+002
3.300995e+003,2.778592e+002
3.301959e+003,2.804365e+002
3.302923e+003,2.842932e+002
3.303887e+003,2.875271e+002
3.304852e+003,2.888351e+002
3.305816e+003,2.874705e+002
3.306780e+003,2.855270e+002
3.307744e+003,2.835145e+002
3.308709e+003,2.838006e+002
3.309673e+003,2.869746e+002
3.310637e+003,2.862648e+002
3.311601e+003,2.831443e+002
3.312566e+003,2.859515e+002
3.313530e+003,2.921188e+002
3.314494e+003,2.943396e+002
3.315458e+003,2.934363e+002
3.316423e+003,2.916690e+002
3.317387e+003,2.901966e+002
3.318351e+003,2.915939e+002
3.319315e+003,2.934729e+002
3.320280e+003,2.930977e+002
3.321244e+003,2.928945e+002
3.322208e+003,2.939149e+002
3.323172e+003,2.942448e+002
3.324136e+003,2.935427e+002
3.325101e+003,2.933849e+002
3.326065e+003,2.944230e+002
3.327029e+003,2.976760e+002
3.327993e+003,3.032852e+002
3.328958e+003,3.050978e+002
3.329922e+003,3.036556e+002
3.330886e+003,3.017253e+002
3.331850e+003,3.007908e+002
3.332814e+003,3.055920e+002
3.333779e+003,3.099164e+002
3.334743e+003,3.069333e+002
3.335707e+003,3.031809e+002
3.336671e+003,3.033226e+002
3.337636e+003,3.049656e+002
3.338600e+003,3.064147e+002
3.339564e+003,3.077918e+002
3.340528e+003,3.090711e+002
3.341493e+003,3.106253e+002
3.342457e+003,3.124123e+002
3.343421e+003,3.129999e+002
3.344385e+003,3.127847e+002
3.345350e+003,3.139324e+002
3.346314e+003,3.155796e+002
3.347278e+003,3.141984e+002
3.348242e+003,3.120876e+002
3.349207e+003,3.153435e+002
3.350171e+003,3.195966e+002
3.351135e+003,3.164029e+002
3.352099e+003,3.133867e+002
3.353063e+003,3.163746e+002
3.354028e+003,3.194911e+002
3.354992e+003,3.212758e+002
3.355956e+003,3.228425e+002
3.356920e+003,3.244691e+002
3.357885e+003,3.247388e+002
3.358849e+003,3.231365e+002
3.359813e+003,3.235904e+002
3.360777e+003,3.260693e+002
3.361741e+003,3.280634e+002
3.362706e+003,3.294116e+002
3.363670e+003,3.298745e+002
3.364634e+003,3.293057e+002
3.365598e+003,3.260383e+002
3.366563e+003,3.254203e+002
3.367527e+003,3.314266e+002
3.368491e+003,3.373555e+002
3.369455e+003,3.374751e+002
3.370420e+003,3.366135e+002
3.371384e+003,3.368094e+002
3.372348e+003,3.371984e+002
3.373312e+003,3.377104e+002
3.374277e+003,3.369570e+002
3.375241e+003,3.355912e+002
3.376205e+003,3.362014e+002
3.377169e+003,3.381648e+002
3.378134e+003,3.395630e+002
3.379098e+003,3.393704e+002
3.380062e+003,3.343696e+002
3.381026e+003,3.297450e+002
3.381990e+003,3.345077e+002
3.382955e+003,3.397664e+002
3.383919e+003,3.408484e+002
3.384883e+003,3.418400e+002
3.385847e+003,3.435606e+002
3.386812e+003,3.435216e+002
3.387776e+003,3.416482e+002
3.388740e+003,3.422617e+002
3.389704e+003,3.461954e+002
3.390668e+003,3.489966e+002
3.391633e+003,3.504638e+002
3.392597e+003,3.482614e+002
3.393561e+003,3.450867e+002
3.394525e+003,3.450142e+002
3.395490e+003,3.460719e+002
3.396454e+003,3.466552e+002
3.397418e+003,3.473162e+002
3.398382e+003,3.483589e+002
3.399347e+003,3.489043e+002
3.400311e+003,3.483250e+002
3.401275e+003,3.478243e+002
3.402239e+003,3.476035e+002
3.403204e+003,3.477060e+002
3.404168e+003,3.481039e+002
3.405132e+003,3.486201e+002
3.406096e+003,3.493706e+002
3.407061e+003,3.503774e+002
3.408025e+003,3.522987e+002
3.408989e+003,3.561652e+002
3.409953e+003,3.594425e+002
3.410917e+003,3.584665e+002
3.411882e+003,3.573149e+002
3.412846e+003,3.602501e+002
3.413810e+003,3.607439e+002
3.414774e+003,3.578709e+002
3.415739e+003,3.540326e+002
3.416703e+003,3.504092e+002
3.417667e+003,3.497650e+002
3.418631e+003,3.519103e+002
3.419595e+003,3.545171e+002
3.420560e+003,3.569324e+002
3.421524e+003,3.578170e+002
3.422488e+003,3.576938e+002
3.423452e+003,3.564499e+002
3.424417e+003,3.561063e+002
3.425381e+003,3.579944e+002
3.426345e+003,3.610548e+002
3.427309e+003,3.648693e+002
3.428274e+003,3.673058e+002
3.429238e+003,3.675924e+002
3.430202e+003,3.653233e+002
3.431166e+003,3.606689e+002
3.432131e+003,3.598473e+002
3.433095e+003,3.621112e+002
3.434059e+003,3.651543e+002
3.435023e+003,3.679690e+002
3.435988e+003,3.695027e+002
3.436952e+003,3.695698e+002
3.437916e+003,3.679030e+002
3.438880e+003,3.674406e+002
3.439844e+003,3.698924e+002
3.440809e+003,3.716575e+002
3.441773e+003,3.703846e+002
3.442737e+003,3.699360e+002
3.443701e+003,3.705385e+002
3.444666e+003,3.724959e+002
3.445630e+003,3.751517e+002
3.446594e+003,3.778217e+002
3.447558e+003,3.787319e+002
3.448522e+003,3.745463e+002
3.449487e+003,3.713068e+002
3.450451e+003,3.751918e+002
3.451415e+003,3.797641e+002
3.452379e+003,3.782649e+002
3.453344e+003,3.769891e+002
3.454308e+003,3.776924e+002
3.455272e+003,3.777480e+002
3.456236e+003,3.775036e+002
3.457201e+003,3.812258e+002
3.458165e+003,3.871920e+002
3.459129e+003,3.888993e+002
3.460093e+003,3.880278e+002
3.461058e+003,3.879490e+002
3.462022e+003,3.886600e+002
3.462986e+003,3.904749e+002
3.463950e+003,3.925876e+002
3.464915e+003,3.949894e+002
3.465879e+003,3.962019e+002
3.466843e+003,3.960606e+002
3.467807e+003,3.971234e+002
3.468771e+003,3.996758e+002
3.469736e+003,4.026532e+002
3.470700e+003,4.051040e+002
3.471664e+003,4.041686e+002
3.472628e+003,4.012823e+002
3.473593e+003,4.006246e+002
3.474557e+003,4.009426e+002
3.475521e+003,4.004160e+002
3.476485e+003,4.014367e+002
3.477449e+003,4.049691e+002
3.478414e+003,4.086172e+002
3.479378e+003,4.112845e+002
3.480342e+003,4.114701e+002
3.481306e+003,4.087253e+002
3.482271e+003,4.075566e+002
3.483235e+003,4.081137e+002
3.484199e+003,4.117993e+002
3.485163e+003,4.160885e+002
3.486128e+003,4.159775e+002
3.487092e+003,4.157643e+002
3.488056e+003,4.190786e+002
3.489020e+003,4.204149e+002
3.489985e+003,4.170362e+002
3.490949e+003,4.145605e+002
3.491913e+003,4.159133e+002
3.492877e+003,4.190831e+002
3.493842e+003,4.238233e+002
3.494806e+003,4.246958e+002
3.495770e+003,4.232889e+002
3.496734e+003,4.232458e+002
3.497698e+003,4.240738e+002
3.498663e+003,4.244768e+002
3.499627e+003,4.264286e+002
3.500591e+003,0.000000e+000
