9.974011e+001,2.866601e+002
1.007043e+002,2.860194e+002
1.016686e+002,2.872852e+002
1.026328e+002,2.904876e+002
1.035970e+002,2.928470e+002
1.045613e+002,2.956427e+002
1.055255e+002,2.979907e+002
1.064897e+002,2.979226e+002
1.074540e+002,2.925513e+002
1.084182e+002,2.871183e+002
1.093824e+002,2.808460e+002
1.103467e+002,2.740496e+002
1.113109e+002,2.685292e+002
1.122751e+002,2.693676e+002
1.132394e+002,2.721855e+002
1.142036e+002,2.747489e+002
1.151678e+002,2.755755e+002
1.161321e+002,2.746308e+002
1.170963e+002,2.732847e+002
1.180605e+002,2.712066e+002
1.190248e+002,2.679606e+002
1.199890e+002,2.632453e+002
1.209532e+002,2.573860e+002
1.219175e+002,2.541275e+002
1.228817e+002,2.543055e+002
1.238459e+002,2.564099e+002
1.248102e+002,2.575306e+002
1.257744e+002,2.561019e+002
1.267386e+002,2.548110e+002
1.277029e+002,2.533624e+002
1.286671e+002,2.517083e+002
1.296313e+002,2.500692e+002
1.305956e+002,2.498976e+002
1.315598e+002,2.494726e+002
1.325240e+002,2.480360e+002
1.334883e+002,2.454176e+002
1.344525e+002,2.425871e+002
1.354167e+002,2.413640e+002
1.363810e+002,2.407919e+002
1.373452e+002,2.398096e+002
1.383094e+002,2.375157e+002
1.392737e+002,2.336773e+002
1.402379e+002,2.305395e+002
1.412021e+002,2.279470e+002
1.421664e+002,2.257404e+002
1.431306e+002,2.237182e+002
1.440948e+002,2.216571e+002
1.450591e+002,2.211635e+002
1.460233e+002,2.227628e+002
1.469875e+002,2.256838e+002
1.479518e+002,2.282150e+002
1.489160e+002,2.289712e+002
1.498802e+002,2.285722e+002
1.508445e+002,2.272544e+002
1.518087e+002,2.255264e+002
1.527729e+002,2.243091e+002
1.537372e+002,2.251168e+002
1.547014e+002,2.259757e+002
1.556656e+002,2.250474e+002
1.566299e+002,2.212888e+002
1.575941e+002,2.147958e+002
1.585583e+002,2.115552e+002
1.595226e+002,2.122959e+002
1.604868e+002,2.145468e+002
1.614510e+002,2.159250e+002
1.624153e+002,2.156056e+002
1.633795e+002,2.135725e+002
1.643438e+002,2.094523e+002
1.653080e+002,2.047524e+002
1.662722e+002,2.014286e+002
1.672365e+002,2.014875e+002
1.682007e+002,2.018804e+002
1.691649e+002,2.015305e+002
1.701292e+002,2.005626e+002
1.710934e+002,1.995609e+002
1.720576e+002,1.991211e+002
1.730219e+002,1.990091e+002
1.739861e+002,1.992447e+002
1.749503e+002,1.995695e+002
1.759146e+002,1.995310e+002
1.768788e+002,1.984111e+002
1.778430e+002,1.979924e+002
1.788073e+002,1.974582e+002
1.797715e+002,1.960019e+002
1.807357e+002,1.927279e+002
1.817000e+002,1.918277e+002
1.826642e+002,1.930291e+002
1.836284e+002,1.947569e+002
1.845927e+002,1.961016e+002
1.855569e+002,1.969363e+002
1.865211e+002,1.959483e+002
1.874854e+002,1.932090e+002
1.884496e+002,1.898062e+002
1.894138e+002,1.868815e+002
1.903781e+002,1.857846e+002
1.913423e+002,1.859463e+002
1.923065e+002,1.848430e+002
1.932708e+002,1.819112e+002
1.942350e+002,1.777439e+002
1.951992e+002,1.755142e+002
1.961635e+002,1.772124e+002
1.971277e+002,1.787193e+002
1.980919e+002,1.794231e+002
1.990562e+002,1.793985e+002
2.000204e+002,1.795610e+002
2.009846e+002,1.801540e+002
2.019489e+002,1.804399e+002
2.029131e+002,1.800642e+002
2.038773e+002,1.789895e+002
2.048416e+002,1.781568e+002
2.058058e+002,1.784361e+002
2.067700e+002,1.790377e+002
2.077343e+002,1.793780e+002
2.086985e+002,1.790324e+002
2.096627e+002,1.782329e+002
2.106270e+002,1.783885e+002
2.115912e+002,1.793167e+002
2.125554e+002,1.798605e+002
2.135197e+002,1.785756e+002
2.144839e+002,1.737881e+002
2.154481e+002,1.703156e+002
2.164124e+002,1.689617e+002
2.173766e+002,1.690492e+002
2.183408e+002,1.693397e+002
2.193051e+002,1.691086e+002
2.202693e+002,1.695852e+002
2.212335e+002,1.717993e+002
2.221978e+002,1.746641e+002
2.231620e+002,1.761321e+002
2.241262e+002,1.730696e+002
2.250904e+002,1.697588e+002
2.260547e+002,1.683256e+002
2.270189e+002,1.688431e+002
2.279831e+002,1.703731e+002
2.289474e+002,1.715969e+002
2.299116e+002,1.729195e+002
2.308758e+002,1.738443e+002
2.318401e+002,1.743586e+002
2.328043e+002,1.746361e+002
2.337685e+002,1.739887e+002
2.347328e+002,1.690509e+002
2.356970e+002,1.647367e+002
2.366612e+002,1.640810e+002
2.376255e+002,1.686646e+002
2.385897e+002,1.719939e+002
2.395539e+002,1.716808e+002
2.405182e+002,1.700599e+002
2.414824e+002,1.683421e+002
2.424466e+002,1.672310e+002
2.434109e+002,1.665914e+002
2.443751e+002,1.651523e+002
2.453393e+002,1.635657e+002
2.463036e+002,1.632563e+002
2.472678e+002,1.659311e+002
2.482320e+002,1.720488e+002
2.491963e+002,1.752212e+002
2.501605e+002,1.747049e+002
2.511247e+002,1.722354e+002
2.520890e+002,1.706269e+002
2.530532e+002,1.704502e+002
2.540174e+002,1.703878e+002
2.549817e+002,1.706374e+002
2.559459e+002,1.714529e+002
2.569102e+002,1.730920e+002
2.578744e+002,1.759245e+002
2.588386e+002,1.770906e+002
2.598029e+002,1.758188e+002
2.607671e+002,1.729991e+002
2.617313e+002,1.702924e+002
2.626956e+002,1.698942e+002
2.636598e+002,1.711330e+002
2.646240e+002,1.725760e+002
2.655883e+002,1.736808e+002
2.665525e+002,1.744291e+002
2.675167e+002,1.764005e+002
2.684810e+002,1.811047e+002
2.694452e+002,1.844268e+002
2.704094e+002,1.843734e+002
2.713737e+002,1.807585e+002
2.723379e+002,1.787607e+002
2.733021e+002,1.788238e+002
2.742664e+002,1.793281e+002
2.752306e+002,1.804570e+002
2.761948e+002,1.823145e+002
2.771591e+002,1.835032e+002
2.781233e+002,1.823116e+002
2.790875e+002,1.809951e+002
2.800518e+002,1.808671e+002
2.810160e+002,1.825240e+002
2.819802e+002,1.851477e+002
2.829445e+002,1.867797e+002
2.839087e+002,1.876866e+002
2.848729e+002,1.881237e+002
2.858372e+002,1.882932e+002
2.868014e+002,1.882380e+002
2.877656e+002,1.881184e+002
2.887299e+002,1.869513e+002
2.896941e+002,1.855075e+002
2.906583e+002,1.845123e+002
2.916226e+002,1.844300e+002
2.925868e+002,1.855586e+002
2.935510e+002,1.885573e+002
2.945153e+002,1.920742e+002
2.954795e+002,1.946894e+002
2.964437e+002,1.950828e+002
2.974080e+002,1.944422e+002
2.983722e+002,1.952371e+002
2.993364e+002,1.969859e+002
3.003007e+002,1.986503e+002
3.012649e+002,1.988062e+002
3.022291e+002,1.971169e+002
3.031934e+002,1.960036e+002
3.041576e+002,1.956553e+002
3.051218e+002,1.959779e+002
3.060861e+002,1.967142e+002
3.070503e+002,1.978890e+002
3.080145e+002,1.977155e+002
3.089788e+002,1.959010e+002
3.099430e+002,1.937552e+002
3.109072e+002,1.930985e+002
3.118715e+002,1.953102e+002
3.128357e+002,1.991156e+002
3.137999e+002,2.044282e+002
3.147642e+002,2.096625e+002
3.157284e+002,2.127725e+002
3.166926e+002,2.111874e+002
3.176569e+002,2.077156e+002
3.186211e+002,2.055092e+002
3.195853e+002,2.047586e+002
3.205496e+002,2.051141e+002
3.215138e+002,2.060396e+002
3.224780e+002,2.075235e+002
3.234423e+002,2.086046e+002
3.244065e+002,2.094452e+002
3.253707e+002,2.100333e+002
3.263350e+002,2.100426e+002
3.272992e+002,2.082733e+002
3.282634e+002,2.079820e+002
3.292277e+002,2.104775e+002
3.301919e+002,2.149455e+002
3.311561e+002,2.188033e+002
3.321204e+002,2.191791e+002
3.330846e+002,2.181038e+002
3.340488e+002,2.161452e+002
3.350131e+002,2.137811e+002
3.359773e+002,2.116677e+002
3.369415e+002,2.119880e+002
3.379058e+002,2.143166e+002
3.388700e+002,2.152239e+002
3.398342e+002,2.135532e+002
3.407985e+002,2.100382e+002
3.417627e+002,2.095712e+002
3.427269e+002,2.140629e+002
3.436912e+002,2.179083e+002
3.446554e+002,2.206906e+002
3.456196e+002,2.226131e+002
3.465839e+002,2.238604e+002
3.475481e+002,2.235010e+002
3.485123e+002,2.235114e+002
3.494765e+002,2.244767e+002
3.504408e+002,2.260223e+002
3.514050e+002,2.268805e+002
3.523692e+002,2.246707e+002
3.533335e+002,2.219257e+002
3.542977e+002,2.214178e+002
3.552619e+002,2.239249e+002
3.562262e+002,2.285688e+002
3.571904e+002,2.305113e+002
3.581546e+002,2.285282e+002
3.591189e+002,2.270438e+002
3.600831e+002,2.273470e+002
3.610473e+002,2.292488e+002
3.620116e+002,2.305501e+002
3.629758e+002,2.322884e+002
3.639400e+002,2.331743e+002
3.649043e+002,2.318589e+002
3.658685e+002,2.286809e+002
3.668327e+002,2.263738e+002
3.677970e+002,2.293199e+002
3.687612e+002,2.331611e+002
3.697254e+002,2.357482e+002
3.706897e+002,2.364857e+002
3.716539e+002,2.360505e+002
3.726181e+002,2.354342e+002
3.735824e+002,2.344104e+002
3.745466e+002,2.342947e+002
3.755108e+002,2.360337e+002
3.764751e+002,2.395082e+002
3.774393e+002,2.408879e+002
3.784035e+002,2.373485e+002
3.793678e+002,2.344599e+002
3.803320e+002,2.337111e+002
3.812962e+002,2.350172e+002
3.822605e+002,2.366397e+002
3.832247e+002,2.381340e+002
3.841889e+002,2.393123e+002
3.851532e+002,2.396541e+002
3.861174e+002,2.393045e+002
3.870816e+002,2.390367e+002
3.880459e+002,2.406621e+002
3.890101e+002,2.426846e+002
3.899743e+002,2.432960e+002
3.909386e+002,2.423265e+002
3.919028e+002,2.406224e+002
3.928670e+002,2.404702e+002
3.938313e+002,2.415958e+002
3.947955e+002,2.426071e+002
3.957597e+002,2.438368e+002
3.967240e+002,2.452296e+002
3.976882e+002,2.458203e+002
3.986524e+002,2.436383e+002
3.996167e+002,2.431967e+002
4.005809e+002,2.459070e+002
4.015451e+002,2.504754e+002
4.025094e+002,2.538626e+002
4.034736e+002,2.534213e+002
4.044378e+002,2.525908e+002
4.054021e+002,2.532584e+002
4.063663e+002,2.550542e+002
4.073305e+002,2.566943e+002
4.082948e+002,2.561375e+002
4.092590e+002,2.534903e+002
4.102232e+002,2.514261e+002
4.111875e+002,2.501298e+002
4.121517e+002,2.492074e+002
4.131159e+002,2.478607e+002
4.140802e+002,2.461476e+002
4.150444e+002,2.463783e+002
4.160086e+002,2.490643e+002
4.169729e+002,2.530839e+002
4.179371e+002,2.566327e+002
4.189013e+002,2.578802e+002
4.198656e+002,2.575136e+002
4.208298e+002,2.568134e+002
4.217940e+002,2.559147e+002
4.227583e+002,2.547741e+002
4.237225e+002,2.532961e+002
4.246867e+002,2.528461e+002
4.256510e+002,2.542863e+002
4.266152e+002,2.568936e+002
4.275794e+002,2.593282e+002
4.285437e+002,2.601497e+002
4.295079e+002,2.587212e+002
4.304721e+002,2.582152e+002
4.314364e+002,2.599800e+002
4.324006e+002,2.625543e+002
4.333648e+002,2.639571e+002
4.343291e+002,2.624762e+002
4.352933e+002,2.618192e+002
4.362575e+002,2.640313e+002
4.372218e+002,2.669805e+002
4.381860e+002,2.692475e+002
4.391502e+002,2.701634e+002
4.401145e+002,2.695472e+002
4.410787e+002,2.659911e+002
4.420429e+002,2.620606e+002
4.430072e+002,2.609630e+002
4.439714e+002,2.645624e+002
4.449356e+002,2.718582e+002
4.458999e+002,2.756147e+002
4.468641e+002,2.764897e+002
4.478283e+002,2.759125e+002
4.487926e+002,2.744729e+002
4.497568e+002,2.723430e+002
4.507210e+002,2.717819e+002
4.516853e+002,2.719663e+002
4.526495e+002,2.720615e+002
4.536137e+002,2.721313e+002
4.545780e+002,2.723569e+002
4.555422e+002,2.727444e+002
4.565064e+002,2.740026e+002
4.574707e+002,2.757819e+002
4.584349e+002,2.777034e+002
4.593991e+002,2.792177e+002
4.603634e+002,2.795808e+002
4.613276e+002,2.771622e+002
4.622918e+002,2.729637e+002
4.632561e+002,2.713336e+002
4.642203e+002,2.739920e+002
4.651845e+002,2.793283e+002
4.661488e+002,2.814819e+002
4.671130e+002,2.751755e+002
4.680772e+002,2.703094e+002
4.690415e+002,2.684786e+002
4.700057e+002,2.688114e+002
4.709699e+002,2.691745e+002
4.719342e+002,2.681295e+002
4.728984e+002,2.673612e+002
4.738626e+002,2.676395e+002
4.748269e+002,2.685507e+002
4.757911e+002,2.696159e+002
4.767553e+002,2.705710e+002
4.777196e+002,2.718831e+002
4.786838e+002,2.738085e+002
4.796480e+002,2.756446e+002
4.806123e+002,2.762971e+002
4.815765e+002,2.749167e+002
4.825407e+002,2.716970e+002
4.835050e+002,2.686575e+002
4.844692e+002,2.646748e+002
4.854334e+002,2.618354e+002
4.863977e+002,2.617321e+002
4.873619e+002,2.645754e+002
4.883261e+002,2.652924e+002
4.892904e+002,2.623817e+002
4.902546e+002,2.598073e+002
4.912188e+002,2.595584e+002
4.921831e+002,2.618383e+002
4.931473e+002,2.645966e+002
4.941115e+002,2.650138e+002
4.950758e+002,2.642761e+002
4.960400e+002,2.631683e+002
4.970042e+002,2.622050e+002
4.979685e+002,2.617919e+002
4.989327e+002,2.627662e+002
4.998969e+002,2.649689e+002
5.008612e+002,2.660790e+002
5.018254e+002,2.649314e+002
5.027896e+002,2.622413e+002
5.037539e+002,2.605031e+002
5.047181e+002,2.621924e+002
5.056823e+002,2.640881e+002
5.066466e+002,2.657405e+002
5.076108e+002,2.669274e+002
5.085750e+002,2.671927e+002
5.095393e+002,2.654675e+002
5.105035e+002,2.627658e+002
5.114677e+002,2.610941e+002
5.124320e+002,2.609032e+002
5.133962e+002,2.625142e+002
5.143605e+002,2.659837e+002
5.153247e+002,2.708018e+002
5.162889e+002,2.736848e+002
5.172532e+002,2.747664e+002
5.182174e+002,2.757878e+002
5.191816e+002,2.779002e+002
5.201459e+002,2.811378e+002
5.211101e+002,2.837689e+002
5.220743e+002,2.842103e+002
5.230386e+002,2.846919e+002
5.240028e+002,2.872747e+002
5.249670e+002,2.926162e+002
5.259313e+002,2.990530e+002
5.268955e+002,3.029194e+002
5.278597e+002,3.057406e+002
5.288240e+002,3.093328e+002
5.297882e+002,3.139984e+002
5.307524e+002,3.189955e+002
5.317167e+002,3.228455e+002
5.326809e+002,3.264511e+002
5.336451e+002,3.311232e+002
5.346094e+002,3.358164e+002
5.355736e+002,3.401528e+002
5.365378e+002,3.446125e+002
5.375021e+002,3.511597e+002
5.384663e+002,3.575112e+002
5.394305e+002,3.634427e+002
5.403948e+002,3.688143e+002
5.413590e+002,3.732719e+002
5.423232e+002,3.761941e+002
5.432875e+002,3.776000e+002
5.442517e+002,3.788928e+002
5.452159e+002,3.810413e+002
5.461802e+002,3.838647e+002
5.471444e+002,3.866942e+002
5.481086e+002,3.886814e+002
5.490729e+002,3.906523e+002
5.500371e+002,3.939294e+002
5.510013e+002,3.967435e+002
5.519656e+002,3.979868e+002
5.529298e+002,3.979378e+002
5.538940e+002,3.992973e+002
5.548583e+002,4.018644e+002
5.558225e+002,4.033651e+002
5.567867e+002,4.044006e+002
5.577510e+002,4.048354e+002
5.587152e+002,4.041446e+002
5.596794e+002,4.020703e+002
5.606437e+002,4.000413e+002
5.616079e+002,3.979453e+002
5.625721e+002,3.958681e+002
5.635364e+002,3.941635e+002
5.645006e+002,3.931341e+002
5.654648e+002,3.918336e+002
5.664291e+002,3.876494e+002
5.673933e+002,3.821870e+002
5.683575e+002,3.783527e+002
5.693218e+002,3.775333e+002
5.702860e+002,3.788155e+002
5.712502e+002,3.778878e+002
5.722145e+002,3.740279e+002
5.731787e+002,3.695767e+002
5.741429e+002,3.662107e+002
5.751072e+002,3.642309e+002
5.760714e+002,3.623267e+002
5.770356e+002,3.588808e+002
5.779999e+002,3.561860e+002
5.789641e+002,3.541874e+002
5.799283e+002,3.527502e+002
5.808926e+002,3.523358e+002
5.818568e+002,3.541510e+002
5.828210e+002,3.568505e+002
5.837853e+002,3.548130e+002
5.847495e+002,3.484360e+002
5.857137e+002,3.410402e+002
5.866780e+002,3.355993e+002
5.876422e+002,3.323738e+002
5.886064e+002,3.300022e+002
5.895707e+002,3.293852e+002
5.905349e+002,3.288375e+002
5.914991e+002,3.269262e+002
5.924634e+002,3.233749e+002
5.934276e+002,3.199457e+002
5.943918e+002,3.188257e+002
5.953560e+002,3.183243e+002
5.963203e+002,3.178156e+002
5.972845e+002,3.167348e+002
5.982487e+002,3.146631e+002
5.992130e+002,3.114478e+002
6.001772e+002,3.079267e+002
6.011414e+002,3.034928e+002
6.021057e+002,2.965249e+002
6.030699e+002,2.891515e+002
6.040341e+002,2.852764e+002
6.049984e+002,2.883177e+002
6.059626e+002,2.875616e+002
6.069268e+002,2.823150e+002
6.078911e+002,2.773196e+002
6.088553e+002,2.748018e+002
6.098195e+002,2.743570e+002
6.107838e+002,2.729164e+002
6.117480e+002,2.681895e+002
6.127122e+002,2.636207e+002
6.136765e+002,2.608882e+002
6.146407e+002,2.594680e+002
6.156049e+002,2.573328e+002
6.165692e+002,2.517576e+002
6.175334e+002,2.437430e+002
6.184976e+002,2.393968e+002
6.194619e+002,2.398364e+002
6.204261e+002,2.418560e+002
6.213903e+002,2.408155e+002
6.223546e+002,2.341645e+002
6.233188e+002,2.297524e+002
6.242830e+002,2.289166e+002
6.252473e+002,2.280879e+002
6.262115e+002,2.254293e+002
6.271757e+002,2.208344e+002
6.281400e+002,2.157622e+002
6.291042e+002,2.102222e+002
6.300684e+002,2.053972e+002
6.310327e+002,2.020005e+002
6.319969e+002,2.000789e+002
6.329611e+002,1.992938e+002
6.339254e+002,1.992362e+002
6.348896e+002,1.992118e+002
6.358538e+002,1.979507e+002
6.368181e+002,1.959036e+002
6.377823e+002,1.931872e+002
6.387465e+002,1.894182e+002
6.397108e+002,1.837222e+002
6.406750e+002,1.804324e+002
6.416392e+002,1.803567e+002
6.426035e+002,1.799818e+002
6.435677e+002,1.777068e+002
6.445319e+002,1.737195e+002
6.454962e+002,1.698477e+002
6.464604e+002,1.672717e+002
6.474246e+002,1.657178e+002
6.483889e+002,1.652272e+002
6.493531e+002,1.650430e+002
6.503173e+002,1.639324e+002
6.512816e+002,1.606356e+002
6.522458e+002,1.555240e+002
6.532100e+002,1.519949e+002
6.541743e+002,1.509228e+002
6.551385e+002,1.501302e+002
6.561027e+002,1.469043e+002
6.570670e+002,1.400725e+002
6.580312e+002,1.361057e+002
6.589954e+002,1.377158e+002
6.599597e+002,1.385004e+002
6.609239e+002,1.363229e+002
6.618881e+002,1.321218e+002
6.628524e+002,1.289186e+002
6.638166e+002,1.294240e+002
6.647808e+002,1.307034e+002
6.657451e+002,1.294579e+002
6.667093e+002,1.259340e+002
6.676735e+002,1.213647e+002
6.686378e+002,1.170599e+002
6.696020e+002,1.131427e+002
6.705662e+002,1.110499e+002
6.715305e+002,1.113614e+002
6.724947e+002,1.109994e+002
6.734589e+002,1.083395e+002
6.744232e+002,1.039785e+002
6.753874e+002,1.011688e+002
6.763516e+002,1.015296e+002
6.773159e+002,1.018114e+002
6.782801e+002,1.005068e+002
6.792443e+002,9.810306e+001
6.802086e+002,9.591389e+001
6.811728e+002,9.502257e+001
6.821370e+002,9.424023e+001
6.831013e+002,9.230910e+001
6.840655e+002,9.014624e+001
6.850297e+002,8.875279e+001
6.859940e+002,8.854243e+001
6.869582e+002,8.896904e+001
6.879224e+002,8.805064e+001
6.888867e+002,8.458635e+001
6.898509e+002,8.174901e+001
6.908151e+002,8.151503e+001
6.917794e+002,8.273795e+001
6.927436e+002,8.222186e+001
6.937078e+002,7.806183e+001
6.946721e+002,7.388420e+001
6.956363e+002,7.011610e+001
6.966005e+002,6.769885e+001
6.975648e+002,6.793794e+001
6.985290e+002,7.084608e+001
6.994932e+002,7.337030e+001
7.004575e+002,6.935240e+001
7.014217e+002,6.235451e+001
7.023859e+002,5.773759e+001
7.033502e+002,5.727983e+001
7.043144e+002,5.924675e+001
7.052786e+002,5.924808e+001
7.062429e+002,5.495998e+001
7.072071e+002,5.136081e+001
7.081713e+002,4.872099e+001
7.091356e+002,4.740514e+001
7.100998e+002,4.804141e+001
7.110640e+002,5.069466e+001
7.120283e+002,5.214842e+001
7.129925e+002,4.939380e+001
7.139567e+002,4.623035e+001
7.149210e+002,4.498877e+001
7.158852e+002,4.566867e+001
7.168494e+002,4.678975e+001
7.178137e+002,4.675626e+001
7.187779e+002,4.575888e+001
7.197421e+002,4.400565e+001
7.207064e+002,4.107346e+001
7.216706e+002,3.832104e+001
7.226348e+002,3.737268e+001
7.235991e+002,3.887088e+001
7.245633e+002,4.051627e+001
7.255275e+002,4.219824e+001
7.264918e+002,4.249146e+001
7.274560e+002,4.039410e+001
7.284202e+002,3.720816e+001
7.293845e+002,3.579367e+001
7.303487e+002,3.824063e+001
7.313129e+002,4.130316e+001
7.322772e+002,4.259933e+001
7.332414e+002,4.258435e+001
7.342056e+002,4.201111e+001
7.351699e+002,4.150757e+001
7.361341e+002,4.126938e+001
7.370983e+002,4.109067e+001
7.380626e+002,4.005374e+001
7.390268e+002,3.886731e+001
7.399910e+002,3.854776e+001
7.409553e+002,3.901376e+001
7.419195e+002,3.896619e+001
7.428837e+002,3.683841e+001
7.438480e+002,3.506891e+001
7.448122e+002,3.601581e+001
7.457764e+002,3.771637e+001
7.467407e+002,3.782852e+001
7.477049e+002,3.588843e+001
7.486691e+002,3.492841e+001
7.496334e+002,3.911966e+001
7.505976e+002,4.466986e+001
7.515618e+002,4.828784e+001
7.525261e+002,4.960318e+001
7.534903e+002,4.939240e+001
7.544545e+002,4.864899e+001
7.554188e+002,4.771381e+001
7.563830e+002,4.878787e+001
7.573472e+002,5.154105e+001
7.583115e+002,5.379843e+001
7.592757e+002,5.532111e+001
7.602399e+002,5.667603e+001
7.612042e+002,5.759906e+001
7.621684e+002,5.475070e+001
7.631326e+002,5.286951e+001
7.640969e+002,5.550757e+001
7.650611e+002,6.050818e+001
7.660253e+002,6.438049e+001
7.669896e+002,6.489270e+001
7.679538e+002,6.379501e+001
7.689180e+002,6.368582e+001
7.698823e+002,6.311450e+001
7.708465e+002,6.256696e+001
7.718107e+002,6.332565e+001
7.727750e+002,6.540784e+001
7.737392e+002,6.643399e+001
7.747034e+002,6.542755e+001
7.756677e+002,6.471735e+001
7.766319e+002,6.318509e+001
7.775961e+002,6.202383e+001
7.785604e+002,6.290195e+001
7.795246e+002,6.628070e+001
7.804888e+002,6.930103e+001
7.814531e+002,6.878790e+001
7.824173e+002,6.719382e+001
7.833815e+002,6.595105e+001
7.843458e+002,6.569119e+001
7.853100e+002,6.664615e+001
7.862742e+002,6.884708e+001
7.872385e+002,7.171683e+001
7.882027e+002,7.324255e+001
7.891669e+002,7.353143e+001
7.901312e+002,7.230496e+001
7.910954e+002,6.948508e+001
7.920596e+002,6.595520e+001
7.930239e+002,6.399506e+001
7.939881e+002,6.472214e+001
7.949523e+002,6.511703e+001
7.959166e+002,6.314169e+001
7.968808e+002,6.049130e+001
7.978450e+002,5.981317e+001
7.988093e+002,6.250797e+001
7.997735e+002,6.629907e+001
8.007377e+002,6.698602e+001
8.017020e+002,6.576794e+001
8.026662e+002,6.407193e+001
8.036304e+002,6.222565e+001
8.045947e+002,6.043857e+001
8.055589e+002,5.922653e+001
8.065231e+002,5.890048e+001
8.074874e+002,5.812436e+001
8.084516e+002,5.676605e+001
8.094158e+002,5.522598e+001
8.103801e+002,5.459546e+001
8.113443e+002,5.522894e+001
8.123085e+002,5.561520e+001
8.132728e+002,5.256766e+001
8.142370e+002,4.938751e+001
8.152012e+002,4.848456e+001
8.161655e+002,4.856720e+001
8.171297e+002,4.807733e+001
8.180939e+002,4.645648e+001
8.190582e+002,4.471841e+001
8.200224e+002,4.261728e+001
8.209866e+002,3.921991e+001
8.219509e+002,3.727942e+001
8.229151e+002,3.833585e+001
8.238793e+002,4.077350e+001
8.248436e+002,4.130099e+001
8.258078e+002,3.946741e+001
8.267720e+002,3.704102e+001
8.277363e+002,3.313718e+001
8.287005e+002,2.933627e+001
8.296647e+002,2.773599e+001
8.306290e+002,2.842554e+001
8.315932e+002,2.890973e+001
8.325574e+002,2.598022e+001
8.335217e+002,2.164639e+001
8.344859e+002,1.956625e+001
8.354501e+002,1.925668e+001
8.364144e+002,1.896542e+001
8.373786e+002,1.742404e+001
8.383428e+002,1.499582e+001
8.393071e+002,1.391302e+001
8.402713e+002,1.620877e+001
8.412355e+002,1.726620e+001
8.421998e+002,1.492154e+001
8.431640e+002,1.130038e+001
8.441282e+002,9.903687e+000
8.450925e+002,1.220047e+001
8.460567e+002,1.434927e+001
8.470209e+002,1.306842e+001
8.479852e+002,1.082620e+001
8.489494e+002,9.500397e+000
8.499136e+002,9.638062e+000
8.508779e+002,1.096603e+001
8.518421e+002,1.311563e+001
8.528063e+002,1.583981e+001
8.537706e+002,1.613513e+001
8.547348e+002,1.331204e+001
8.556990e+002,1.059833e+001
8.566633e+002,1.009210e+001
8.576275e+002,1.124554e+001
8.585917e+002,1.100909e+001
8.595560e+002,8.192047e+000
8.605202e+002,6.001709e+000
8.614844e+002,5.320862e+000
8.624487e+002,5.850128e+000
8.634129e+002,7.195984e+000
8.643771e+002,8.739258e+000
8.653414e+002,9.272736e+000
8.663056e+002,7.282379e+000
8.672698e+002,5.243591e+000
8.682341e+002,6.600861e+000
8.691983e+002,1.122916e+001
8.701625e+002,1.546790e+001
8.711268e+002,1.478281e+001
8.720910e+002,7.746124e+000
8.730552e+002,2.709076e+000
8.740195e+002,3.180664e+000
8.749837e+002,5.102478e+000
8.759479e+002,6.923920e+000
8.769122e+002,8.244843e+000
8.778764e+002,8.942230e+000
8.788406e+002,8.582367e+000
8.798049e+002,7.819763e+000
8.807691e+002,9.025665e+000
8.817333e+002,1.100220e+001
8.826976e+002,1.181244e+001
8.836618e+002,1.094104e+001
8.846260e+002,9.250397e+000
8.855903e+002,8.085388e+000
8.865545e+002,7.181854e+000
8.875187e+002,7.642059e+000
8.884830e+002,1.113632e+001
8.894472e+002,1.403745e+001
8.904114e+002,1.344501e+001
8.913757e+002,1.030740e+001
8.923399e+002,9.707977e+000
8.933041e+002,1.434659e+001
8.942684e+002,1.775778e+001
8.952326e+002,1.741187e+001
8.961968e+002,1.536966e+001
8.971611e+002,1.424063e+001
8.981253e+002,1.505756e+001
8.990895e+002,1.636847e+001
9.000538e+002,1.512991e+001
9.010180e+002,1.160620e+001
9.019822e+002,9.569885e+000
9.029465e+002,9.412018e+000
9.039107e+002,1.064780e+001
9.048749e+002,1.323914e+001
9.058392e+002,1.717105e+001
9.068034e+002,1.952814e+001
9.077676e+002,1.864438e+001
9.087319e+002,1.834006e+001
9.096961e+002,1.986078e+001
9.106603e+002,2.269791e+001
9.116246e+002,2.568213e+001
9.125888e+002,2.804123e+001
9.135530e+002,3.032718e+001
9.145173e+002,3.416684e+001
9.154815e+002,3.775989e+001
9.164457e+002,3.912759e+001
9.174100e+002,3.863995e+001
9.183742e+002,3.807623e+001
9.193384e+002,3.913568e+001
9.203027e+002,4.188382e+001
9.212669e+002,4.459146e+001
9.222311e+002,4.543100e+001
9.231954e+002,4.561490e+001
9.241596e+002,4.642908e+001
9.251238e+002,4.806155e+001
9.260881e+002,5.001471e+001
9.270523e+002,5.190793e+001
9.280165e+002,5.377246e+001
9.289808e+002,5.524304e+001
9.299450e+002,5.726807e+001
9.309092e+002,6.079611e+001
9.318735e+002,6.552814e+001
9.328377e+002,7.035831e+001
9.338019e+002,7.423203e+001
9.347662e+002,7.708496e+001
9.357304e+002,7.805585e+001
9.366946e+002,7.727609e+001
9.376589e+002,7.726611e+001
9.386231e+002,7.843445e+001
9.395873e+002,7.992969e+001
9.405516e+002,8.074329e+001
9.415158e+002,8.088217e+001
9.424800e+002,8.168134e+001
9.434443e+002,8.559546e+001
9.444085e+002,8.895135e+001
9.453727e+002,8.722559e+001
9.463370e+002,8.169778e+001
9.473012e+002,7.848749e+001
9.482654e+002,8.356149e+001
9.492297e+002,9.393015e+001
9.501939e+002,9.811911e+001
9.511581e+002,9.730804e+001
9.521224e+002,9.698221e+001
9.530866e+002,1.000114e+002
9.540508e+002,1.042492e+002
9.550151e+002,1.042747e+002
9.559793e+002,9.705853e+001
9.569435e+002,9.122385e+001
9.579078e+002,9.089087e+001
9.588720e+002,9.259094e+001
9.598362e+002,9.423035e+001
9.608005e+002,9.522607e+001
9.617647e+002,9.569821e+001
9.627289e+002,9.557782e+001
9.636932e+002,9.558240e+001
9.646574e+002,9.800595e+001
9.656216e+002,1.015111e+002
9.665859e+002,1.028426e+002
9.675501e+002,1.009370e+002
9.685143e+002,9.777954e+001
9.694786e+002,9.677820e+001
9.704428e+002,9.868481e+001
9.714070e+002,1.015100e+002
9.723713e+002,1.034186e+002
9.733355e+002,1.051392e+002
9.742997e+002,1.084436e+002
9.752640e+002,1.132046e+002
9.762282e+002,1.176012e+002
9.771924e+002,1.199205e+002
9.781567e+002,1.212337e+002
9.791209e+002,1.237537e+002
9.800851e+002,1.268515e+002
9.810494e+002,1.297028e+002
9.820136e+002,1.323474e+002
9.829778e+002,1.350465e+002
9.839421e+002,1.376938e+002
9.849063e+002,1.396225e+002
9.858705e+002,1.392585e+002
9.868348e+002,1.360057e+002
9.877990e+002,1.348034e+002
9.887632e+002,1.374435e+002
9.897275e+002,1.422986e+002
9.906917e+002,1.465386e+002
9.916559e+002,1.486260e+002
9.926202e+002,1.489566e+002
9.935844e+002,1.499658e+002
9.945486e+002,1.507496e+002
9.955129e+002,1.496702e+002
9.964771e+002,1.471859e+002
9.974413e+002,1.448876e+002
9.984056e+002,1.439099e+002
9.993698e+002,1.436887e+002
1.000334e+003,1.435934e+002
1.001298e+003,1.439294e+002
1.002263e+003,1.448323e+002
1.003227e+003,1.466445e+002
1.004191e+003,1.486550e+002
1.005155e+003,1.498701e+002
1.006119e+003,1.500343e+002
1.007084e+003,1.502630e+002
1.008048e+003,1.519820e+002
1.009012e+003,1.545523e+002
1.009976e+003,1.570853e+002
1.010941e+003,1.590267e+002
1.011905e+003,1.600554e+002
1.012869e+003,1.601158e+002
1.013833e+003,1.594886e+002
1.014798e+003,1.590245e+002
1.015762e+003,1.598578e+002
1.016726e+003,1.617170e+002
1.017690e+003,1.646358e+002
1.018654e+003,1.681346e+002
1.019619e+003,1.712778e+002
1.020583e+003,1.739786e+002
1.021547e+003,1.779493e+002
1.022511e+003,1.851277e+002
1.023476e+003,1.901220e+002
1.024440e+003,1.894098e+002
1.025404e+003,1.876534e+002
1.026368e+003,1.898466e+002
1.027333e+003,1.967657e+002
1.028297e+003,2.048372e+002
1.029261e+003,2.095313e+002
1.030225e+003,2.105700e+002
1.031190e+003,2.120736e+002
1.032154e+003,2.155597e+002
1.033118e+003,2.195907e+002
1.034082e+003,2.224935e+002
1.035047e+003,2.248594e+002
1.036011e+003,2.291421e+002
1.036975e+003,2.365013e+002
1.037939e+003,2.409261e+002
1.038903e+003,2.390004e+002
1.039868e+003,2.374781e+002
1.040832e+003,2.395975e+002
1.041796e+003,2.443329e+002
1.042760e+003,2.488082e+002
1.043725e+003,2.512381e+002
1.044689e+003,2.526388e+002
1.045653e+003,2.561160e+002
1.046617e+003,2.615388e+002
1.047582e+003,2.660589e+002
1.048546e+003,2.701541e+002
1.049510e+003,2.746197e+002
1.050474e+003,2.795349e+002
1.051438e+003,2.842791e+002
1.052403e+003,2.882336e+002
1.053367e+003,2.900210e+002
1.054331e+003,2.921726e+002
1.055295e+003,2.963294e+002
1.056260e+003,3.014701e+002
1.057224e+003,3.064561e+002
1.058188e+003,3.112443e+002
1.059152e+003,3.169236e+002
1.060117e+003,3.247105e+002
1.061081e+003,3.337894e+002
1.062045e+003,3.409011e+002
1.063009e+003,3.452523e+002
1.063974e+003,3.481135e+002
1.064938e+003,3.504755e+002
1.065902e+003,3.533417e+002
1.066866e+003,3.575150e+002
1.067830e+003,3.625836e+002
1.068795e+003,3.666901e+002
1.069759e+003,3.694074e+002
1.070723e+003,3.722851e+002
1.071687e+003,3.767776e+002
1.072652e+003,3.826401e+002
1.073616e+003,3.883596e+002
1.074580e+003,3.926335e+002
1.075544e+003,3.958178e+002
1.076509e+003,3.994459e+002
1.077473e+003,4.039605e+002
1.078437e+003,4.095942e+002
1.079401e+003,4.170441e+002
1.080365e+003,4.241917e+002
1.081330e+003,4.286486e+002
1.082294e+003,4.306323e+002
1.083258e+003,4.332204e+002
1.084222e+003,4.372990e+002
1.085187e+003,4.410867e+002
1.086151e+003,4.448365e+002
1.087115e+003,4.479790e+002
1.088079e+003,4.494869e+002
1.089043e+003,4.496658e+002
1.090008e+003,4.497917e+002
1.090972e+003,4.508494e+002
1.091936e+003,4.526394e+002
1.092900e+003,4.552660e+002
1.093865e+003,4.584167e+002
1.094829e+003,4.592385e+002
1.095793e+003,4.569234e+002
1.096757e+003,4.535442e+002
1.097722e+003,4.502673e+002
1.098686e+003,4.463813e+002
1.099650e+003,4.434058e+002
1.100614e+003,4.447241e+002
1.101578e+003,4.454721e+002
1.102543e+003,4.428280e+002
1.103507e+003,4.391431e+002
1.104471e+003,4.367723e+002
1.105435e+003,4.352784e+002
1.106400e+003,4.320253e+002
1.107364e+003,4.252834e+002
1.108328e+003,4.167801e+002
1.109292e+003,4.098592e+002
1.110257e+003,4.047249e+002
1.111221e+003,4.010099e+002
1.112185e+003,3.974856e+002
1.113149e+003,3.938085e+002
1.114114e+003,3.912172e+002
1.115078e+003,3.906945e+002
1.116042e+003,3.877328e+002
1.117006e+003,3.791687e+002
1.117970e+003,3.708591e+002
1.118935e+003,3.647924e+002
1.119899e+003,3.591189e+002
1.120863e+003,3.514098e+002
1.121827e+003,3.417368e+002
1.122792e+003,3.331366e+002
1.123756e+003,3.287588e+002
1.124720e+003,3.271258e+002
1.125684e+003,3.234465e+002
1.126649e+003,3.190370e+002
1.127613e+003,3.144733e+002
1.128577e+003,3.097769e+002
1.129541e+003,3.045640e+002
1.130505e+003,2.978043e+002
1.131470e+003,2.888601e+002
1.132434e+003,2.807782e+002
1.133398e+003,2.762139e+002
1.134362e+003,2.725675e+002
1.135327e+003,2.682685e+002
1.136291e+003,2.635655e+002
1.137255e+003,2.593323e+002
1.138219e+003,2.559708e+002
1.139184e+003,2.530316e+002
1.140148e+003,2.496323e+002
1.141112e+003,2.450289e+002
1.142076e+003,2.391400e+002
1.143041e+003,2.330103e+002
1.144005e+003,2.269192e+002
1.144969e+003,2.200143e+002
1.145933e+003,2.136210e+002
1.146897e+003,2.099084e+002
1.147862e+003,2.087703e+002
1.148826e+003,2.073737e+002
1.149790e+003,2.059388e+002
1.150754e+003,2.032719e+002
1.151719e+003,1.978456e+002
1.152683e+003,1.911076e+002
1.153647e+003,1.849807e+002
1.154611e+003,1.803639e+002
1.155576e+003,1.769058e+002
1.156540e+003,1.737472e+002
1.157504e+003,1.699662e+002
1.158468e+003,1.665611e+002
1.159432e+003,1.663727e+002
1.160397e+003,1.641574e+002
1.161361e+003,1.578781e+002
1.162325e+003,1.505501e+002
1.163289e+003,1.448386e+002
1.164254e+003,1.406278e+002
1.165218e+003,1.375924e+002
1.166182e+003,1.366673e+002
1.167146e+003,1.364545e+002
1.168111e+003,1.357653e+002
1.169075e+003,1.342706e+002
1.170039e+003,1.314596e+002
1.171003e+003,1.273244e+002
1.171968e+003,1.228468e+002
1.172932e+003,1.195176e+002
1.173896e+003,1.176847e+002
1.174860e+003,1.151560e+002
1.175824e+003,1.093630e+002
1.176789e+003,1.051766e+002
1.177753e+003,1.054337e+002
1.178717e+003,1.061682e+002
1.179681e+003,1.028493e+002
1.180646e+003,9.588940e+001
1.181610e+003,9.028680e+001
1.182574e+003,8.901617e+001
1.183538e+003,8.952328e+001
1.184503e+003,8.936667e+001
1.185467e+003,8.849142e+001
1.186431e+003,8.613315e+001
1.187395e+003,8.185443e+001
1.188359e+003,7.683121e+001
1.189324e+003,7.268356e+001
1.190288e+003,6.990506e+001
1.191252e+003,6.818283e+001
1.192216e+003,6.703342e+001
1.193181e+003,6.702896e+001
1.194145e+003,6.998404e+001
1.195109e+003,7.126578e+001
1.196073e+003,6.742679e+001
1.197038e+003,6.041736e+001
1.198002e+003,5.419565e+001
1.198966e+003,5.048737e+001
1.199930e+003,4.904443e+001
1.200895e+003,5.105780e+001
1.201859e+003,5.508505e+001
1.202823e+003,5.494446e+001
1.203787e+003,4.951309e+001
1.204751e+003,4.418936e+001
1.205716e+003,4.356961e+001
1.206680e+003,4.576382e+001
1.207644e+003,4.458008e+001
1.208608e+003,3.859775e+001
1.209573e+003,3.370474e+001
1.210537e+003,3.336557e+001
1.211501e+003,3.375113e+001
1.212465e+003,3.275189e+001
1.213430e+003,3.162497e+001
1.214394e+003,3.220313e+001
1.215358e+003,3.428003e+001
1.216322e+003,3.555066e+001
1.217286e+003,3.403525e+001
1.218251e+003,3.047858e+001
1.219215e+003,2.726163e+001
1.220179e+003,2.477390e+001
1.221143e+003,2.326907e+001
1.222108e+003,2.263437e+001
1.223072e+003,2.304745e+001
1.224036e+003,2.500122e+001
1.225000e+003,2.768457e+001
1.225965e+003,2.801077e+001
1.226929e+003,2.413013e+001
1.227893e+003,1.862595e+001
1.228857e+003,1.396832e+001
1.229822e+003,1.157974e+001
1.230786e+003,1.248532e+001
1.231750e+003,1.560843e+001
1.232714e+003,1.806342e+001
1.233678e+003,1.756149e+001
1.234643e+003,1.471021e+001
1.235607e+003,1.246802e+001
1.236571e+003,1.223962e+001
1.237535e+003,1.218808e+001
1.238500e+003,1.019418e+001
1.239464e+003,9.631042e+000
1.240428e+003,1.344543e+001
1.241392e+003,1.857709e+001
1.242357e+003,2.032239e+001
1.243321e+003,1.802612e+001
1.244285e+003,1.506134e+001
1.245249e+003,1.297992e+001
1.246214e+003,1.248041e+001
1.247178e+003,1.497858e+001
1.248142e+003,1.892776e+001
1.249106e+003,1.988232e+001
1.250070e+003,1.607358e+001
1.251035e+003,1.071439e+001
1.251999e+003,8.124481e+000
1.252963e+003,8.355957e+000
1.253927e+003,8.019806e+000
1.254892e+003,5.935608e+000
1.255856e+003,5.689514e+000
1.256820e+003,9.740784e+000
1.257784e+003,1.381622e+001
1.258749e+003,1.339542e+001
1.259713e+003,9.966431e+000
1.260677e+003,9.537537e+000
1.261641e+003,1.549231e+001
1.262605e+003,2.269586e+001
1.263570e+003,2.171542e+001
1.264534e+003,1.240286e+001
1.265498e+003,6.898956e+000
1.266462e+003,5.944244e+000
1.267427e+003,7.311188e+000
1.268391e+003,1.146826e+001
1.269355e+003,1.566321e+001
1.270319e+003,1.552985e+001
1.271284e+003,1.104443e+001
1.272248e+003,7.519012e+000
1.273212e+003,8.231934e+000
1.274176e+003,1.034598e+001
1.275141e+003,9.750916e+000
1.276105e+003,7.145935e+000
1.277069e+003,4.640076e+000
1.278033e+003,3.377747e+000
1.278997e+003,3.826813e+000
1.279962e+003,6.672485e+000
1.280926e+003,1.179050e+001
1.281890e+003,1.506436e+001
1.282854e+003,1.200034e+001
1.283819e+003,9.966187e+000
1.284783e+003,1.158817e+001
1.285747e+003,1.276727e+001
1.286711e+003,1.182355e+001
1.287676e+003,1.007867e+001
1.288640e+003,8.664215e+000
1.289604e+003,7.648346e+000
1.290568e+003,7.989746e+000
1.291532e+003,1.157489e+001
1.292497e+003,1.577112e+001
1.293461e+003,1.423245e+001
1.294425e+003,8.604950e+000
1.295389e+003,5.783325e+000
1.296354e+003,8.397583e+000
1.297318e+003,1.195776e+001
1.298282e+003,1.160718e+001
1.299246e+003,7.810516e+000
1.300211e+003,4.524017e+000
1.301175e+003,2.313629e+000
1.302139e+003,2.218109e+000
1.303103e+003,5.493927e+000
1.304068e+003,8.033783e+000
1.305032e+003,7.214111e+000
1.305996e+003,4.367188e+000
1.306960e+003,2.115143e+000
1.307924e+003,1.822418e+000
1.308889e+003,2.963379e+000
1.309853e+003,4.126343e+000
1.310817e+003,4.118134e+000
1.311781e+003,3.615631e+000
1.312746e+003,5.275482e+000
1.313710e+003,7.245270e+000
1.314674e+003,8.873840e+000
1.315638e+003,1.014487e+001
1.316603e+003,1.066565e+001
1.317567e+003,9.724976e+000
1.318531e+003,6.893280e+000
1.319495e+003,2.981415e+000
1.320459e+003,8.982849e-001
1.321424e+003,1.923981e+000
1.322388e+003,4.315033e+000
1.323352e+003,7.050842e+000
1.324316e+003,9.995575e+000
1.325281e+003,1.193652e+001
1.326245e+003,1.229190e+001
1.327209e+003,1.151627e+001
1.328173e+003,9.807678e+000
1.329138e+003,7.167999e+000
1.330102e+003,5.809845e+000
1.331066e+003,7.366211e+000
1.332030e+003,8.816345e+000
1.332995e+003,8.761963e+000
1.333959e+003,7.625305e+000
1.334923e+003,4.020721e+000
1.335887e+003,9.185791e-003
1.336851e+003,6.473694e-001
1.337816e+003,7.794373e+000
1.338780e+003,1.623990e+001
1.339744e+003,1.817679e+001
1.340708e+003,1.341064e+001
1.341673e+003,9.761322e+000
1.342637e+003,7.027130e+000
1.343601e+003,6.254028e+000
1.344565e+003,1.115457e+001
1.345530e+003,1.583295e+001
1.346494e+003,1.430026e+001
1.347458e+003,8.780396e+000
1.348422e+003,5.847656e+000
1.349386e+003,7.048920e+000
1.350351e+003,8.881439e+000
1.351315e+003,9.468933e+000
1.352279e+003,9.902740e+000
1.353243e+003,1.158749e+001
1.354208e+003,1.428360e+001
1.355172e+003,1.640118e+001
1.356136e+003,1.687024e+001
1.357100e+003,1.593140e+001
1.358065e+003,1.416495e+001
1.359029e+003,1.194434e+001
1.359993e+003,9.990723e+000
1.360957e+003,8.544678e+000
1.361922e+003,7.643738e+000
1.362886e+003,6.256012e+000
1.363850e+003,6.272430e+000
1.364814e+003,9.561188e+000
1.365778e+003,1.376471e+001
1.366743e+003,1.601755e+001
1.367707e+003,1.554956e+001
1.368671e+003,1.327258e+001
1.369635e+003,1.015967e+001
1.370600e+003,7.180145e+000
1.371564e+003,6.271332e+000
1.372528e+003,7.302399e+000
1.373492e+003,8.741089e+000
1.374457e+003,1.058170e+001
1.375421e+003,1.199094e+001
1.376385e+003,1.320389e+001
1.377349e+003,1.424039e+001
1.378313e+003,1.448651e+001
1.379278e+003,1.381500e+001
1.380242e+003,1.342731e+001
1.381206e+003,1.455923e+001
1.382170e+003,1.639648e+001
1.383135e+003,1.732904e+001
1.384099e+003,1.747794e+001
1.385063e+003,1.672223e+001
1.386027e+003,1.395618e+001
1.386992e+003,1.081033e+001
1.387956e+003,9.385925e+000
1.388920e+003,9.556580e+000
1.389884e+003,1.020087e+001
1.390849e+003,1.143219e+001
1.391813e+003,1.297449e+001
1.392777e+003,1.342273e+001
1.393741e+003,1.316193e+001
1.394705e+003,1.482983e+001
1.395670e+003,1.716144e+001
1.396634e+003,1.737253e+001
1.397598e+003,1.523120e+001
1.398562e+003,1.271414e+001
1.399527e+003,1.148572e+001
1.400491e+003,1.178934e+001
1.401455e+003,1.354358e+001
1.402419e+003,1.676743e+001
1.403384e+003,1.784833e+001
1.404348e+003,1.307080e+001
1.405312e+003,9.170105e+000
1.406276e+003,1.041858e+001
1.407240e+003,1.298254e+001
1.408205e+003,1.201212e+001
1.409169e+003,8.686096e+000
1.410133e+003,7.344788e+000
1.411097e+003,8.927063e+000
1.412062e+003,9.395630e+000
1.413026e+003,5.510254e+000
1.413990e+003,3.693237e-001
1.414954e+003,3.651123e-001
1.415919e+003,5.246643e+000
1.416883e+003,9.556152e+000
1.417847e+003,1.260181e+001
1.418811e+003,1.435159e+001
1.419776e+003,1.478922e+001
1.420740e+003,1.449673e+001
1.421704e+003,1.443179e+001
1.422668e+003,1.475415e+001
1.423632e+003,1.406845e+001
1.424597e+003,1.089627e+001
1.425561e+003,8.082733e+000
1.426525e+003,9.275055e+000
1.427489e+003,1.271527e+001
1.428454e+003,1.647800e+001
1.429418e+003,2.015674e+001
1.430382e+003,2.237155e+001
1.431346e+003,2.153500e+001
1.432311e+003,1.885309e+001
1.433275e+003,1.752972e+001
1.434239e+003,1.861462e+001
1.435203e+003,1.922015e+001
1.436167e+003,1.720911e+001
1.437132e+003,1.586383e+001
1.438096e+003,1.657773e+001
1.439060e+003,1.746729e+001
1.440024e+003,1.887781e+001
1.440989e+003,2.072681e+001
1.441953e+003,2.189868e+001
1.442917e+003,2.162839e+001
1.443881e+003,2.016449e+001
1.444846e+003,1.825745e+001
1.445810e+003,1.692792e+001
1.446774e+003,1.807446e+001
1.447738e+003,2.284940e+001
1.448703e+003,2.384833e+001
1.449667e+003,1.771957e+001
1.450631e+003,1.308444e+001
1.451595e+003,1.385153e+001
1.452559e+003,1.655316e+001
1.453524e+003,1.749551e+001
1.454488e+003,1.678748e+001
1.455452e+003,1.667169e+001
1.456416e+003,1.806360e+001
1.457381e+003,1.966840e+001
1.458345e+003,2.001950e+001
1.459309e+003,1.908716e+001
1.460273e+003,1.831262e+001
1.461238e+003,1.912988e+001
1.462202e+003,1.976514e+001
1.463166e+003,1.824631e+001
1.464130e+003,1.805927e+001
1.465094e+003,2.218118e+001
1.466059e+003,2.698532e+001
1.467023e+003,2.704227e+001
1.467987e+003,2.254547e+001
1.468951e+003,1.867734e+001
1.469916e+003,1.838513e+001
1.470880e+003,2.085962e+001
1.471844e+003,2.449170e+001
1.472808e+003,2.711044e+001
1.473773e+003,2.651193e+001
1.474737e+003,2.317401e+001
1.475701e+003,2.108752e+001
1.476665e+003,2.322296e+001
1.477630e+003,2.698413e+001
1.478594e+003,2.884280e+001
1.479558e+003,2.830023e+001
1.480522e+003,2.534760e+001
1.481486e+003,1.955490e+001
1.482451e+003,1.652499e+001
1.483415e+003,2.116888e+001
1.484379e+003,2.685782e+001
1.485343e+003,2.788013e+001
1.486308e+003,2.645648e+001
1.487272e+003,2.629712e+001
1.488236e+003,2.800845e+001
1.489200e+003,2.990326e+001
1.490165e+003,3.052072e+001
1.491129e+003,3.013278e+001
1.492093e+003,3.009055e+001
1.493057e+003,3.086765e+001
1.494021e+003,3.131635e+001
1.494986e+003,3.133450e+001
1.495950e+003,3.167734e+001
1.496914e+003,3.179218e+001
1.497878e+003,3.175977e+001
1.498843e+003,3.186966e+001
1.499807e+003,3.228986e+001
1.500771e+003,3.325250e+001
1.501735e+003,3.463962e+001
1.502700e+003,3.569675e+001
1.503664e+003,3.558563e+001
1.504628e+003,3.444974e+001
1.505592e+003,3.357678e+001
1.506557e+003,3.369635e+001
1.507521e+003,3.455701e+001
1.508485e+003,3.598575e+001
1.509449e+003,3.717514e+001
1.510413e+003,3.711194e+001
1.511378e+003,3.702332e+001
1.512342e+003,3.942285e+001
1.513306e+003,4.276575e+001
1.514270e+003,4.299240e+001
1.515235e+003,3.901959e+001
1.516199e+003,3.406143e+001
1.517163e+003,3.138840e+001
1.518127e+003,3.088834e+001
1.519092e+003,3.144904e+001
1.520056e+003,3.297092e+001
1.521020e+003,3.423267e+001
1.521984e+003,3.685999e+001
1.522948e+003,3.690494e+001
1.523913e+003,3.095239e+001
1.524877e+003,2.527524e+001
1.525841e+003,2.587604e+001
1.526805e+003,3.081799e+001
1.527770e+003,3.436456e+001
1.528734e+003,3.423621e+001
1.529698e+003,3.239200e+001
1.530662e+003,3.108588e+001
1.531627e+003,3.070175e+001
1.532591e+003,3.138058e+001
1.533555e+003,3.340204e+001
1.534519e+003,3.383881e+001
1.535484e+003,3.174637e+001
1.536448e+003,2.982153e+001
1.537412e+003,2.862494e+001
1.538376e+003,2.759790e+001
1.539340e+003,2.618692e+001
1.540305e+003,2.515585e+001
1.541269e+003,2.644235e+001
1.542233e+003,3.007532e+001
1.543197e+003,3.169861e+001
1.544162e+003,2.755087e+001
1.545126e+003,2.095944e+001
1.546090e+003,1.944733e+001
1.547054e+003,2.349658e+001
1.548019e+003,2.763474e+001
1.548983e+003,2.966479e+001
1.549947e+003,2.953241e+001
1.550911e+003,2.642026e+001
1.551875e+003,2.268307e+001
1.552840e+003,2.170813e+001
1.553804e+003,2.359348e+001
1.554768e+003,2.596640e+001
1.555732e+003,2.755023e+001
1.556697e+003,2.746399e+001
1.557661e+003,2.470834e+001
1.558625e+003,2.182779e+001
1.559589e+003,2.348740e+001
1.560554e+003,2.762622e+001
1.561518e+003,2.849817e+001
1.562482e+003,2.486868e+001
1.563446e+003,2.183710e+001
1.564411e+003,2.363272e+001
1.565375e+003,2.658109e+001
1.566339e+003,2.515833e+001
1.567303e+003,2.073102e+001
1.568267e+003,1.935046e+001
1.569232e+003,2.210553e+001
1.570196e+003,2.406787e+001
1.571160e+003,2.305850e+001
1.572124e+003,2.024454e+001
1.573089e+003,1.559943e+001
1.574053e+003,1.157132e+001
1.575017e+003,1.167667e+001
1.575981e+003,1.565787e+001
1.576946e+003,2.055099e+001
1.577910e+003,2.539948e+001
1.578874e+003,2.823767e+001
1.579838e+003,2.727383e+001
1.580802e+003,2.453940e+001
1.581767e+003,2.296921e+001
1.582731e+003,2.172400e+001
1.583695e+003,2.178299e+001
1.584659e+003,2.482056e+001
1.585624e+003,2.671667e+001
1.586588e+003,2.371432e+001
1.587552e+003,2.038943e+001
1.588516e+003,2.126489e+001
1.589481e+003,2.527850e+001
1.590445e+003,2.815781e+001
1.591409e+003,2.802969e+001
1.592373e+003,2.671671e+001
1.593338e+003,2.625690e+001
1.594302e+003,2.660220e+001
1.595266e+003,2.687320e+001
1.596230e+003,2.714542e+001
1.597194e+003,2.802194e+001
1.598159e+003,2.956061e+001
1.599123e+003,3.025418e+001
1.600087e+003,2.917401e+001
1.601051e+003,2.756531e+001
1.602016e+003,2.620850e+001
1.602980e+003,2.460123e+001
1.603944e+003,2.195355e+001
1.604908e+003,1.883987e+001
1.605873e+003,1.795413e+001
1.606837e+003,2.176736e+001
1.607801e+003,2.747531e+001
1.608765e+003,2.951874e+001
1.609729e+003,2.765768e+001
1.610694e+003,2.653848e+001
1.611658e+003,2.723666e+001
1.612622e+003,2.885617e+001
1.613586e+003,3.329126e+001
1.614551e+003,3.697519e+001
1.615515e+003,3.480164e+001
1.616479e+003,2.988193e+001
1.617443e+003,2.737067e+001
1.618408e+003,2.741165e+001
1.619372e+003,2.649033e+001
1.620336e+003,2.302957e+001
1.621300e+003,2.019464e+001
1.622265e+003,2.137302e+001
1.623229e+003,2.530457e+001
1.624193e+003,2.888174e+001
1.625157e+003,3.192285e+001
1.626121e+003,3.360059e+001
1.627086e+003,3.371375e+001
1.628050e+003,3.322150e+001
1.629014e+003,3.132962e+001
1.629978e+003,2.940326e+001
1.630943e+003,2.993164e+001
1.631907e+003,3.174554e+001
1.632871e+003,3.138889e+001
1.633835e+003,2.854465e+001
1.634800e+003,2.741281e+001
1.635764e+003,3.164511e+001
1.636728e+003,3.797849e+001
1.637692e+003,4.098370e+001
1.638656e+003,4.051273e+001
1.639621e+003,3.905099e+001
1.640585e+003,3.672134e+001
1.641549e+003,3.471359e+001
1.642513e+003,3.514499e+001
1.643478e+003,3.628323e+001
1.644442e+003,3.484720e+001
1.645406e+003,3.250967e+001
1.646370e+003,3.177481e+001
1.647335e+003,3.234961e+001
1.648299e+003,3.291708e+001
1.649263e+003,3.318439e+001
1.650227e+003,3.361475e+001
1.651192e+003,3.574762e+001
1.652156e+003,3.780856e+001
1.653120e+003,3.498608e+001
1.654084e+003,2.836636e+001
1.655048e+003,2.669803e+001
1.656013e+003,3.251480e+001
1.656977e+003,3.799234e+001
1.657941e+003,3.798279e+001
1.658905e+003,3.541733e+001
1.659870e+003,3.539908e+001
1.660834e+003,3.708652e+001
1.661798e+003,3.642886e+001
1.662762e+003,3.246893e+001
1.663727e+003,2.948141e+001
1.664691e+003,2.951294e+001
1.665655e+003,3.082321e+001
1.666619e+003,3.293588e+001
1.667583e+003,3.533185e+001
1.668548e+003,3.614227e+001
1.669512e+003,3.499637e+001
1.670476e+003,3.352802e+001
1.671440e+003,3.289944e+001
1.672405e+003,3.369366e+001
1.673369e+003,3.620688e+001
1.674333e+003,3.893286e+001
1.675297e+003,3.902649e+001
1.676262e+003,3.693896e+001
1.677226e+003,3.563538e+001
1.678190e+003,3.530258e+001
1.679154e+003,3.583954e+001
1.680119e+003,3.855093e+001
1.681083e+003,4.053366e+001
1.682047e+003,3.897562e+001
1.683011e+003,3.568646e+001
1.683975e+003,3.363339e+001
1.684940e+003,3.351465e+001
1.685904e+003,3.545886e+001
1.686868e+003,3.938342e+001
1.687832e+003,4.259116e+001
1.688797e+003,4.169952e+001
1.689761e+003,3.790421e+001
1.690725e+003,3.683749e+001
1.691689e+003,3.973489e+001
1.692654e+003,4.071518e+001
1.693618e+003,3.987781e+001
1.694582e+003,3.892508e+001
1.695546e+003,3.549625e+001
1.696510e+003,3.234467e+001
1.697475e+003,3.289081e+001
1.698439e+003,3.587195e+001
1.699403e+003,3.930334e+001
1.700367e+003,4.239194e+001
1.701332e+003,4.379858e+001
1.702296e+003,4.288510e+001
1.703260e+003,4.184433e+001
1.704224e+003,4.315579e+001
1.705189e+003,4.573627e+001
1.706153e+003,4.689618e+001
1.707117e+003,4.590143e+001
1.708081e+003,4.437784e+001
1.709046e+003,4.482278e+001
1.710010e+003,4.645972e+001
1.710974e+003,4.778387e+001
1.711938e+003,4.839868e+001
1.712902e+003,4.777802e+001
1.713867e+003,4.613315e+001
1.714831e+003,4.455957e+001
1.715795e+003,4.402014e+001
1.716759e+003,4.467740e+001
1.717724e+003,4.621890e+001
1.718688e+003,4.841895e+001
1.719652e+003,5.119724e+001
1.720616e+003,5.368744e+001
1.721581e+003,5.358459e+001
1.722545e+003,5.061871e+001
1.723509e+003,4.795908e+001
1.724473e+003,4.504922e+001
1.725438e+003,4.435565e+001
1.726402e+003,4.716010e+001
1.727366e+003,5.038751e+001
1.728330e+003,5.400711e+001
1.729294e+003,5.685013e+001
1.730259e+003,5.701758e+001
1.731223e+003,5.483929e+001
1.732187e+003,5.189087e+001
1.733151e+003,4.848996e+001
1.734116e+003,4.562802e+001
1.735080e+003,4.577103e+001
1.736044e+003,4.776028e+001
1.737008e+003,4.674197e+001
1.737973e+003,4.264642e+001
1.738937e+003,4.079068e+001
1.739901e+003,4.224438e+001
1.740865e+003,4.400070e+001
1.741829e+003,4.539420e+001
1.742794e+003,4.636472e+001
1.743758e+003,4.645972e+001
1.744722e+003,4.637164e+001
1.745686e+003,4.705087e+001
1.746651e+003,4.831027e+001
1.747615e+003,4.912134e+001
1.748579e+003,4.882199e+001
1.749543e+003,4.833896e+001
1.750508e+003,4.861993e+001
1.751472e+003,4.945117e+001
1.752436e+003,5.023288e+001
1.753400e+003,5.052689e+001
1.754365e+003,5.019708e+001
1.755329e+003,4.946164e+001
1.756293e+003,4.858627e+001
1.757257e+003,4.772583e+001
1.758221e+003,4.692712e+001
1.759186e+003,4.632663e+001
1.760150e+003,4.652975e+001
1.761114e+003,4.770795e+001
1.762078e+003,4.876099e+001
1.763043e+003,4.888364e+001
1.764007e+003,4.698877e+001
1.764971e+003,4.514102e+001
1.765935e+003,4.580075e+001
1.766900e+003,4.720175e+001
1.767864e+003,4.759177e+001
1.768828e+003,4.764548e+001
1.769792e+003,4.848566e+001
1.770756e+003,4.998041e+001
1.771721e+003,5.121814e+001
1.772685e+003,5.124252e+001
1.773649e+003,4.922586e+001
1.774613e+003,4.520038e+001
1.775578e+003,4.136472e+001
1.776542e+003,4.096143e+001
1.777506e+003,4.365820e+001
1.778470e+003,4.554886e+001
1.779435e+003,4.632654e+001
1.780399e+003,4.573938e+001
1.781363e+003,4.341037e+001
1.782327e+003,4.229080e+001
1.783292e+003,4.290402e+001
1.784256e+003,4.335953e+001
1.785220e+003,4.324835e+001
1.786184e+003,4.316345e+001
1.787148e+003,4.293835e+001
1.788113e+003,4.234756e+001
1.789077e+003,4.256128e+001
1.790041e+003,4.456946e+001
1.791005e+003,4.569077e+001
1.791970e+003,4.272858e+001
1.792934e+003,3.820007e+001
1.793898e+003,3.654868e+001
1.794862e+003,3.734253e+001
1.795827e+003,3.824100e+001
1.796791e+003,3.858917e+001
1.797755e+003,3.896420e+001
1.798719e+003,3.990317e+001
1.799683e+003,4.125983e+001
1.800648e+003,4.247699e+001
1.801612e+003,4.332816e+001
1.802576e+003,4.481958e+001
1.803540e+003,4.689825e+001
1.804505e+003,4.576938e+001
1.805469e+003,4.039603e+001
1.806433e+003,3.681100e+001
1.807397e+003,3.513632e+001
1.808362e+003,3.515771e+001
1.809326e+003,3.838266e+001
1.810290e+003,4.248984e+001
1.811254e+003,4.443759e+001
1.812219e+003,4.449966e+001
1.813183e+003,4.437952e+001
1.814147e+003,4.420978e+001
1.815111e+003,4.293320e+001
1.816075e+003,4.058231e+001
1.817040e+003,3.907843e+001
1.818004e+003,4.083237e+001
1.818968e+003,4.555685e+001
1.819932e+003,4.667474e+001
1.820897e+003,4.074628e+001
1.821861e+003,3.633612e+001
1.822825e+003,3.633521e+001
1.823789e+003,3.610312e+001
1.824754e+003,3.417871e+001
1.825718e+003,3.386761e+001
1.826682e+003,3.732886e+001
1.827646e+003,4.177722e+001
1.828610e+003,4.342703e+001
1.829575e+003,4.254419e+001
1.830539e+003,4.252490e+001
1.831503e+003,4.490210e+001
1.832467e+003,4.690143e+001
1.833432e+003,4.569864e+001
1.834396e+003,4.295801e+001
1.835360e+003,4.163040e+001
1.836324e+003,4.210886e+001
1.837289e+003,4.300729e+001
1.838253e+003,4.308862e+001
1.839217e+003,4.248404e+001
1.840181e+003,4.173718e+001
1.841146e+003,4.099512e+001
1.842110e+003,4.059119e+001
1.843074e+003,4.114154e+001
1.844038e+003,4.313358e+001
1.845002e+003,4.623126e+001
1.845967e+003,4.707178e+001
1.846931e+003,4.370270e+001
1.847895e+003,4.241962e+001
1.848859e+003,4.219785e+001
1.849824e+003,4.224423e+001
1.850788e+003,4.569601e+001
1.851752e+003,4.812228e+001
1.852716e+003,4.491971e+001
1.853681e+003,4.027698e+001
1.854645e+003,3.974496e+001
1.855609e+003,4.300403e+001
1.856573e+003,4.651642e+001
1.857537e+003,4.822568e+001
1.858502e+003,4.739941e+001
1.859466e+003,4.391544e+001
1.860430e+003,4.034827e+001
1.861394e+003,3.978943e+001
1.862359e+003,4.109485e+001
1.863323e+003,4.143964e+001
1.864287e+003,4.043692e+001
1.865251e+003,4.048361e+001
1.866216e+003,4.347696e+001
1.867180e+003,4.708466e+001
1.868144e+003,4.900192e+001
1.869108e+003,4.895239e+001
1.870073e+003,4.722299e+001
1.871037e+003,4.471460e+001
1.872001e+003,4.359265e+001
1.872965e+003,4.438507e+001
1.873929e+003,4.544461e+001
1.874894e+003,4.609631e+001
1.875858e+003,4.546146e+001
1.876822e+003,4.283981e+001
1.877786e+003,4.082800e+001
1.878751e+003,4.205667e+001
1.879715e+003,4.442145e+001
1.880679e+003,4.383905e+001
1.881643e+003,4.112079e+001
1.882608e+003,4.098392e+001
1.883572e+003,4.465369e+001
1.884536e+003,4.798422e+001
1.885500e+003,4.751770e+001
1.886464e+003,4.455637e+001
1.887429e+003,4.150708e+001
1.888393e+003,3.951382e+001
1.889357e+003,4.185858e+001
1.890321e+003,4.855597e+001
1.891286e+003,5.013043e+001
1.892250e+003,4.338483e+001
1.893214e+003,3.768497e+001
1.894178e+003,3.771802e+001
1.895143e+003,4.092929e+001
1.896107e+003,4.586011e+001
1.897071e+003,5.056134e+001
1.898035e+003,5.070505e+001
1.899000e+003,4.595825e+001
1.899964e+003,4.297061e+001
1.900928e+003,4.639224e+001
1.901892e+003,4.908829e+001
1.902856e+003,4.575220e+001
1.903821e+003,4.257077e+001
1.904785e+003,4.198053e+001
1.905749e+003,4.244849e+001
1.906713e+003,4.572955e+001
1.907678e+003,4.973755e+001
1.908642e+003,4.844315e+001
1.909606e+003,4.216571e+001
1.910570e+003,3.771429e+001
1.911535e+003,3.844696e+001
1.912499e+003,4.087689e+001
1.913463e+003,4.096573e+001
1.914427e+003,3.886987e+001
1.915391e+003,3.682626e+001
1.916356e+003,3.590298e+001
1.917320e+003,3.659384e+001
1.918284e+003,3.926770e+001
1.919248e+003,4.155118e+001
1.920213e+003,4.132611e+001
1.921177e+003,4.090961e+001
1.922141e+003,4.271991e+001
1.923105e+003,4.453299e+001
1.924070e+003,4.311832e+001
1.925034e+003,4.000061e+001
1.925998e+003,3.994904e+001
1.926962e+003,4.305054e+001
1.927927e+003,4.434259e+001
1.928891e+003,4.239133e+001
1.929855e+003,4.155713e+001
1.930819e+003,4.336951e+001
1.931783e+003,4.456494e+001
1.932748e+003,4.383817e+001
1.933712e+003,4.265805e+001
1.934676e+003,4.227646e+001
1.935640e+003,4.205524e+001
1.936605e+003,4.025949e+001
1.937569e+003,3.665558e+001
1.938533e+003,3.285190e+001
1.939497e+003,3.063513e+001
1.940462e+003,3.144901e+001
1.941426e+003,3.627933e+001
1.942390e+003,4.155460e+001
1.943354e+003,4.135620e+001
1.944318e+003,3.662524e+001
1.945283e+003,3.298166e+001
1.946247e+003,3.188199e+001
1.947211e+003,3.252466e+001
1.948175e+003,3.468732e+001
1.949140e+003,3.698566e+001
1.950104e+003,3.774597e+001
1.951068e+003,3.721924e+001
1.952032e+003,3.656165e+001
1.952997e+003,3.623367e+001
1.953961e+003,3.653830e+001
1.954925e+003,3.745151e+001
1.955889e+003,3.802521e+001
1.956854e+003,3.834460e+001
1.957818e+003,3.867889e+001
1.958782e+003,3.964645e+001
1.959746e+003,4.086514e+001
1.960710e+003,4.031244e+001
1.961675e+003,3.904205e+001
1.962639e+003,3.915948e+001
1.963603e+003,4.015445e+001
1.964567e+003,4.034244e+001
1.965532e+003,3.974011e+001
1.966496e+003,3.998041e+001
1.967460e+003,4.167618e+001
1.968424e+003,4.257224e+001
1.969389e+003,4.079004e+001
1.970353e+003,3.853519e+001
1.971317e+003,3.805008e+001
1.972281e+003,3.807721e+001
1.973245e+003,3.688275e+001
1.974210e+003,3.525162e+001
1.975174e+003,3.403775e+001
1.976138e+003,3.360754e+001
1.977102e+003,3.560614e+001
1.978067e+003,4.005652e+001
1.979031e+003,4.283694e+001
1.979995e+003,4.056467e+001
1.980959e+003,3.615210e+001
1.981924e+003,3.505884e+001
1.982888e+003,3.708365e+001
1.983852e+003,3.806873e+001
1.984816e+003,3.749634e+001
1.985781e+003,3.648166e+001
1.986745e+003,3.587589e+001
1.987709e+003,3.564026e+001
1.988673e+003,3.472699e+001
1.989637e+003,3.385776e+001
1.990602e+003,3.365369e+001
1.991566e+003,3.339822e+001
1.992530e+003,3.268790e+001
1.993494e+003,3.277045e+001
1.994459e+003,3.588785e+001
1.995423e+003,4.311060e+001
1.996387e+003,4.573975e+001
1.997351e+003,3.988580e+001
1.998316e+003,3.406369e+001
1.999280e+003,2.942593e+001
2.000244e+003,2.769601e+001
2.001208e+003,3.171997e+001
2.002172e+003,3.682828e+001
2.003137e+003,3.760803e+001
2.004101e+003,3.543274e+001
2.005065e+003,3.476709e+001
2.006029e+003,3.636462e+001
2.006994e+003,3.750607e+001
2.007958e+003,3.658362e+001
2.008922e+003,3.368024e+001
2.009886e+003,2.708362e+001
2.010851e+003,2.298721e+001
2.011815e+003,2.926816e+001
2.012779e+003,3.906091e+001
2.013743e+003,4.243304e+001
2.014708e+003,4.049762e+001
2.015672e+003,3.860663e+001
2.016636e+003,3.799808e+001
2.017600e+003,3.633679e+001
2.018564e+003,3.256644e+001
2.019529e+003,2.992978e+001
2.020493e+003,3.206888e+001
2.021457e+003,3.664252e+001
2.022421e+003,3.810934e+001
2.023386e+003,3.653925e+001
2.024350e+003,3.448593e+001
2.025314e+003,3.215936e+001
2.026278e+003,3.333636e+001
2.027243e+003,3.919339e+001
2.028207e+003,4.196942e+001
2.029171e+003,3.791727e+001
2.030135e+003,3.452097e+001
2.031099e+003,3.771167e+001
2.032064e+003,4.248004e+001
2.033028e+003,4.088315e+001
2.033992e+003,3.382706e+001
2.034956e+003,3.080484e+001
2.035921e+003,3.512833e+001
2.036885e+003,3.818997e+001
2.037849e+003,4.019067e+001
2.038813e+003,4.108130e+001
2.039778e+003,3.472214e+001
2.040742e+003,2.923062e+001
2.041706e+003,3.120575e+001
2.042670e+003,3.507272e+001
2.043635e+003,3.691278e+001
2.044599e+003,3.681210e+001
2.045563e+003,3.397397e+001
2.046527e+003,2.955658e+001
2.047491e+003,2.987164e+001
2.048456e+003,3.811139e+001
2.049420e+003,4.390192e+001
2.050384e+003,4.047531e+001
2.051348e+003,3.585010e+001
2.052313e+003,3.413547e+001
2.053277e+003,3.404269e+001
2.054241e+003,3.548520e+001
2.055205e+003,3.768472e+001
2.056170e+003,3.834302e+001
2.057134e+003,3.721796e+001
2.058098e+003,3.701791e+001
2.059062e+003,3.875394e+001
2.060027e+003,3.911179e+001
2.060991e+003,3.555743e+001
2.061955e+003,3.228183e+001
2.062919e+003,3.382895e+001
2.063884e+003,3.648306e+001
2.064848e+003,3.660538e+001
2.065812e+003,3.577005e+001
2.066776e+003,3.432977e+001
2.067740e+003,3.265771e+001
2.068705e+003,3.433713e+001
2.069669e+003,3.899310e+001
2.070633e+003,4.028967e+001
2.071597e+003,3.552811e+001
2.072562e+003,3.006537e+001
2.073526e+003,2.945679e+001
2.074490e+003,3.175500e+001
2.075454e+003,3.099829e+001
2.076418e+003,2.790140e+001
2.077383e+003,2.913538e+001
2.078347e+003,3.317490e+001
2.079311e+003,3.374191e+001
2.080275e+003,3.229947e+001
2.081240e+003,3.167059e+001
2.082204e+003,3.128043e+001
2.083168e+003,3.200824e+001
2.084132e+003,3.444476e+001
2.085096e+003,3.597034e+001
2.086061e+003,3.448215e+001
2.087025e+003,3.148935e+001
2.087989e+003,2.927499e+001
2.088953e+003,2.780011e+001
2.089918e+003,2.753125e+001
2.090882e+003,2.872800e+001
2.091846e+003,2.962149e+001
2.092810e+003,3.017926e+001
2.093775e+003,3.034851e+001
2.094739e+003,2.942847e+001
2.095703e+003,2.830383e+001
2.096667e+003,2.759821e+001
2.097632e+003,2.734024e+001
2.098596e+003,2.820004e+001
2.099560e+003,3.042563e+001
2.100524e+003,3.209341e+001
2.101489e+003,3.200192e+001
2.102453e+003,3.081348e+001
2.103417e+003,2.871030e+001
2.104381e+003,2.667282e+001
2.105345e+003,2.491745e+001
2.106310e+003,2.352786e+001
2.107274e+003,2.126697e+001
2.108238e+003,2.091550e+001
2.109202e+003,2.650317e+001
2.110167e+003,3.295477e+001
2.111131e+003,3.209033e+001
2.112095e+003,2.523361e+001
2.113059e+003,2.092224e+001
2.114023e+003,2.199820e+001
2.114988e+003,2.651059e+001
2.115952e+003,3.545993e+001
2.116916e+003,4.000385e+001
2.117880e+003,3.593311e+001
2.118845e+003,3.068353e+001
2.119809e+003,2.961734e+001
2.120773e+003,3.053445e+001
2.121737e+003,2.951556e+001
2.122702e+003,2.712537e+001
2.123666e+003,2.581357e+001
2.124630e+003,2.515805e+001
2.125594e+003,2.271127e+001
2.126559e+003,1.805789e+001
2.127523e+003,1.499524e+001
2.128487e+003,1.663986e+001
2.129451e+003,1.923602e+001
2.130416e+003,1.998773e+001
2.131380e+003,2.030652e+001
2.132344e+003,2.142950e+001
2.133308e+003,2.300662e+001
2.134272e+003,2.503339e+001
2.135237e+003,2.606293e+001
2.136201e+003,2.386731e+001
2.137165e+003,1.950354e+001
2.138129e+003,1.676132e+001
2.139094e+003,1.717383e+001
2.140058e+003,1.862900e+001
2.141022e+003,1.908829e+001
2.141986e+003,1.896024e+001
2.142950e+003,1.880438e+001
2.143915e+003,1.942587e+001
2.144879e+003,2.235699e+001
2.145843e+003,2.528436e+001
2.146807e+003,2.521075e+001
2.147772e+003,2.355746e+001
2.148736e+003,2.233759e+001
2.149700e+003,2.165970e+001
2.150664e+003,2.201971e+001
2.151629e+003,2.371692e+001
2.152593e+003,2.452127e+001
2.153557e+003,2.293399e+001
2.154521e+003,2.079938e+001
2.155486e+003,1.889288e+001
2.156450e+003,1.696027e+001
2.157414e+003,1.565076e+001
2.158378e+003,1.486813e+001
2.159343e+003,1.410016e+001
2.160307e+003,1.337656e+001
2.161271e+003,1.286661e+001
2.162235e+003,1.228683e+001
2.163199e+003,1.044089e+001
2.164164e+003,7.271729e+000
2.165128e+003,6.640900e+000
2.166092e+003,1.264059e+001
2.167056e+003,2.003561e+001
2.168021e+003,2.009579e+001
2.168985e+003,1.589648e+001
2.169949e+003,1.488351e+001
2.170913e+003,1.578473e+001
2.171877e+003,1.428729e+001
2.172842e+003,1.123071e+001
2.173806e+003,9.193268e+000
2.174770e+003,8.696289e+000
2.175734e+003,1.047879e+001
2.176699e+003,1.456473e+001
2.177663e+003,1.828488e+001
2.178627e+003,1.971112e+001
2.179591e+003,1.951041e+001
2.180556e+003,1.725873e+001
2.181520e+003,1.363235e+001
2.182484e+003,1.106284e+001
2.183448e+003,9.903625e+000
2.184413e+003,1.024719e+001
2.185377e+003,1.159842e+001
2.186341e+003,1.243350e+001
2.187305e+003,1.238242e+001
2.188270e+003,1.260471e+001
2.189234e+003,1.390338e+001
2.190198e+003,1.535803e+001
2.191162e+003,1.538861e+001
2.192126e+003,1.426440e+001
2.193091e+003,1.412622e+001
2.194055e+003,1.421234e+001
2.195019e+003,1.098276e+001
2.195983e+003,6.721741e+000
2.196948e+003,7.502625e+000
2.197912e+003,1.210931e+001
2.198876e+003,1.476221e+001
2.199840e+003,1.435934e+001
2.200804e+003,1.319330e+001
2.201769e+003,1.229636e+001
2.202733e+003,1.217374e+001
2.203697e+003,1.369943e+001
2.204661e+003,1.480707e+001
2.205626e+003,1.166818e+001
2.206590e+003,7.103516e+000
2.207554e+003,6.748840e+000
2.208518e+003,8.275696e+000
2.209483e+003,6.680695e+000
2.210447e+003,3.555756e+000
2.211411e+003,4.547272e+000
2.212375e+003,9.360352e+000
2.213340e+003,1.252692e+001
2.214304e+003,1.250674e+001
2.215268e+003,1.205002e+001
2.216232e+003,1.237415e+001
2.217197e+003,1.248834e+001
2.218161e+003,1.253778e+001
2.219125e+003,1.179340e+001
2.220089e+003,7.309448e+000
2.221053e+003,2.399017e+000
2.222018e+003,3.126617e+000
2.222982e+003,6.851868e+000
2.223946e+003,9.956024e+000
2.224910e+003,1.228262e+001
2.225875e+003,1.233826e+001
2.226839e+003,9.942902e+000
2.227803e+003,7.557526e+000
2.228767e+003,6.318817e+000
2.229731e+003,6.053925e+000
2.230696e+003,7.219788e+000
2.231660e+003,8.453094e+000
2.232624e+003,8.705017e+000
2.233588e+003,8.594116e+000
2.234553e+003,6.740845e+000
2.235517e+003,4.653717e+000
2.236481e+003,6.227112e+000
2.237445e+003,9.570465e+000
2.238410e+003,1.045486e+001
2.239374e+003,9.110626e+000
2.240338e+003,8.235077e+000
2.241302e+003,8.568054e+000
2.242267e+003,8.323853e+000
2.243231e+003,6.074554e+000
2.244195e+003,5.094818e+000
2.245159e+003,9.908356e+000
2.246124e+003,1.569818e+001
2.247088e+003,1.719791e+001
2.248052e+003,1.585635e+001
2.249016e+003,1.378616e+001
2.249980e+003,1.155515e+001
2.250945e+003,8.866791e+000
2.251909e+003,6.448914e+000
2.252873e+003,5.116882e+000
2.253837e+003,4.771515e+000
2.254802e+003,6.311951e+000
2.255766e+003,1.085577e+001
2.256730e+003,1.390646e+001
2.257694e+003,1.017859e+001
2.258658e+003,5.787811e+000
2.259623e+003,5.809143e+000
2.260587e+003,7.108826e+000
2.261551e+003,6.758057e+000
2.262515e+003,6.198914e+000
2.263480e+003,7.989044e+000
2.264444e+003,1.127982e+001
2.265408e+003,1.401047e+001
2.266372e+003,1.489954e+001
2.267337e+003,1.245432e+001
2.268301e+003,6.555176e+000
2.269265e+003,2.566162e+000
2.270229e+003,5.105469e+000
2.271194e+003,9.338440e+000
2.272158e+003,1.061734e+001
2.273122e+003,1.072705e+001
2.274086e+003,1.323938e+001
2.275051e+003,1.413971e+001
2.276015e+003,8.551270e+000
2.276979e+003,1.848114e+000
2.277943e+003,0.000000e+000
2.278907e+003,1.862427e+000
2.279872e+003,4.257172e+000
2.280836e+003,6.161560e+000
2.281800e+003,6.487366e+000
2.282764e+003,5.198090e+000
2.283729e+003,4.737000e+000
2.284693e+003,6.736206e+000
2.285657e+003,9.301270e+000
2.286621e+003,1.051566e+001
2.287585e+003,1.021100e+001
2.288550e+003,8.915924e+000
2.289514e+003,7.970154e+000
2.290478e+003,8.289368e+000
2.291442e+003,9.542084e+000
2.292407e+003,1.096725e+001
2.293371e+003,1.190799e+001
2.294335e+003,1.097382e+001
2.295299e+003,7.309082e+000
2.296264e+003,6.205139e+000
2.297228e+003,1.051523e+001
2.298192e+003,1.169171e+001
2.299156e+003,7.666840e+000
2.300121e+003,6.075165e+000
2.301085e+003,8.578400e+000
2.302049e+003,1.154568e+001
2.303013e+003,1.382190e+001
2.303978e+003,1.577103e+001
2.304942e+003,1.734348e+001
2.305906e+003,1.830618e+001
2.306870e+003,1.873734e+001
2.307834e+003,1.863324e+001
2.308799e+003,1.774191e+001
2.309763e+003,1.650165e+001
2.310727e+003,1.611713e+001
2.311691e+003,1.593805e+001
2.312656e+003,1.773691e+001
2.313620e+003,2.200665e+001
2.314584e+003,2.330594e+001
2.315548e+003,1.962650e+001
2.316512e+003,1.664633e+001
2.317477e+003,1.884546e+001
2.318441e+003,2.311719e+001
2.319405e+003,2.458887e+001
2.320369e+003,2.410867e+001
2.321334e+003,2.302145e+001
2.322298e+003,2.126389e+001
2.323262e+003,2.272870e+001
2.324226e+003,2.746103e+001
2.325191e+003,3.113492e+001
2.326155e+003,3.336594e+001
2.327119e+003,3.689432e+001
2.328083e+003,4.138309e+001
2.329048e+003,4.415143e+001
2.330012e+003,4.472797e+001
2.330976e+003,4.254117e+001
2.331940e+003,3.537906e+001
2.332905e+003,2.878137e+001
2.333869e+003,3.122513e+001
2.334833e+003,3.623364e+001
2.335797e+003,3.746808e+001
2.336761e+003,3.730991e+001
2.337726e+003,3.608569e+001
2.338690e+003,3.464603e+001
2.339654e+003,3.575586e+001
2.340618e+003,3.902213e+001
2.341583e+003,4.288626e+001
2.342547e+003,4.674484e+001
2.343511e+003,4.884735e+001
2.344475e+003,4.811819e+001
2.345439e+003,4.843109e+001
2.346404e+003,5.245471e+001
2.347368e+003,5.477057e+001
2.348332e+003,5.255084e+001
2.349296e+003,5.220541e+001
2.350261e+003,5.851147e+001
2.351225e+003,6.528033e+001
2.352189e+003,6.719147e+001
2.353153e+003,6.670746e+001
2.354118e+003,6.565494e+001
2.355082e+003,6.503961e+001
2.356046e+003,6.876025e+001
2.357010e+003,7.690085e+001
2.357975e+003,8.042941e+001
2.358939e+003,7.752759e+001
2.359903e+003,7.648953e+001
2.360867e+003,7.576355e+001
2.361832e+003,7.666479e+001
2.362796e+003,8.188013e+001
2.363760e+003,8.617325e+001
2.364724e+003,8.810474e+001
2.365688e+003,9.030515e+001
2.366653e+003,9.276355e+001
2.367617e+003,9.482904e+001
2.368581e+003,9.718112e+001
2.369545e+003,9.950925e+001
2.370510e+003,1.006777e+002
2.371474e+003,1.014150e+002
2.372438e+003,1.031805e+002
2.373402e+003,1.051937e+002
2.374366e+003,1.043548e+002
2.375331e+003,1.018600e+002
2.376295e+003,1.037950e+002
2.377259e+003,1.099034e+002
2.378223e+003,1.142775e+002
2.379188e+003,1.153793e+002
2.380152e+003,1.170123e+002
2.381116e+003,1.211729e+002
2.382080e+003,1.235627e+002
2.383045e+003,1.193891e+002
2.384009e+003,1.151288e+002
2.384973e+003,1.183719e+002
2.385937e+003,1.231667e+002
2.386902e+003,1.242670e+002
2.387866e+003,1.250397e+002
2.388830e+003,1.280367e+002
2.389794e+003,1.312685e+002
2.390759e+003,1.328217e+002
2.391723e+003,1.325456e+002
2.392687e+003,1.309807e+002
2.393651e+003,1.293009e+002
2.394615e+003,1.290448e+002
2.395580e+003,1.298142e+002
2.396544e+003,1.312135e+002
2.397508e+003,1.350265e+002
2.398472e+003,1.359771e+002
2.399437e+003,1.319942e+002
2.400401e+003,1.289981e+002
2.401365e+003,1.274820e+002
2.402329e+003,1.282772e+002
2.403293e+003,1.330189e+002
2.404258e+003,1.377882e+002
2.405222e+003,1.387359e+002
2.406186e+003,1.379836e+002
2.407150e+003,1.389135e+002
2.408115e+003,1.409745e+002
2.409079e+003,1.427379e+002
2.410043e+003,1.440830e+002
2.411007e+003,1.439064e+002
2.411972e+003,1.425887e+002
2.412936e+003,1.422834e+002
2.413900e+003,1.427630e+002
2.414864e+003,1.440993e+002
2.415829e+003,1.466856e+002
2.416793e+003,1.485422e+002
2.417757e+003,1.482759e+002
2.418721e+003,1.474729e+002
2.419686e+003,1.476748e+002
2.420650e+003,1.487554e+002
2.421614e+003,1.508318e+002
2.422578e+003,1.527720e+002
2.423542e+003,1.529873e+002
2.424507e+003,1.524456e+002
2.425471e+003,1.527273e+002
2.426435e+003,1.540432e+002
2.427399e+003,1.561052e+002
2.428364e+003,1.571777e+002
2.429328e+003,1.557782e+002
2.430292e+003,1.530443e+002
2.431256e+003,1.504695e+002
2.432220e+003,1.476790e+002
2.433185e+003,1.478654e+002
2.434149e+003,1.537310e+002
2.435113e+003,1.565482e+002
2.436077e+003,1.554776e+002
2.437042e+003,1.534034e+002
2.438006e+003,1.505710e+002
2.438970e+003,1.474407e+002
2.439934e+003,1.439139e+002
2.440899e+003,1.411545e+002
2.441863e+003,1.405333e+002
2.442827e+003,1.408623e+002
2.443791e+003,1.392501e+002
2.444756e+003,1.371379e+002
2.445720e+003,1.424992e+002
2.446684e+003,1.521984e+002
2.447648e+003,1.487421e+002
2.448613e+003,1.360753e+002
2.449577e+003,1.272335e+002
2.450541e+003,1.231629e+002
2.451505e+003,1.238894e+002
2.452469e+003,1.277453e+002
2.453434e+003,1.283380e+002
2.454398e+003,1.237205e+002
2.455362e+003,1.200116e+002
2.456326e+003,1.220201e+002
2.457291e+003,1.259357e+002
2.458255e+003,1.289796e+002
2.459219e+003,1.302739e+002
2.460183e+003,1.276813e+002
2.461147e+003,1.230154e+002
2.462112e+003,1.169944e+002
2.463076e+003,1.135457e+002
2.464040e+003,1.159664e+002
2.465004e+003,1.191498e+002
2.465969e+003,1.190731e+002
2.466933e+003,1.175164e+002
2.467897e+003,1.150045e+002
2.468861e+003,1.111797e+002
2.469826e+003,1.110269e+002
2.470790e+003,1.157389e+002
2.471754e+003,1.154117e+002
2.472718e+003,1.101204e+002
2.473683e+003,1.083592e+002
2.474647e+003,1.096816e+002
2.475611e+003,1.101339e+002
2.476575e+003,1.096501e+002
2.477540e+003,1.086092e+002
2.478504e+003,1.067620e+002
2.479468e+003,1.042325e+002
2.480432e+003,1.012618e+002
2.481396e+003,9.968146e+001
2.482361e+003,1.028673e+002
2.483325e+003,1.069950e+002
2.484289e+003,1.058530e+002
2.485253e+003,1.032175e+002
2.486218e+003,1.045794e+002
2.487182e+003,1.058234e+002
2.488146e+003,1.016084e+002
2.489110e+003,9.587369e+001
2.490074e+003,9.497787e+001
2.491039e+003,9.762466e+001
2.492003e+003,9.727115e+001
2.492967e+003,9.231183e+001
2.493931e+003,9.016330e+001
2.494896e+003,9.357031e+001
2.495860e+003,9.480316e+001
2.496824e+003,9.330621e+001
2.497788e+003,9.257181e+001
2.498753e+003,9.230536e+001
2.499717e+003,9.293008e+001
2.500681e+003,9.507309e+001
2.501645e+003,9.562717e+001
2.502610e+003,9.274161e+001
2.503574e+003,8.976288e+001
2.504538e+003,8.997513e+001
2.505502e+003,9.150320e+001
2.506467e+003,9.085489e+001
2.507431e+003,8.897421e+001
2.508395e+003,8.823004e+001
2.509359e+003,8.847220e+001
2.510323e+003,9.020135e+001
2.511288e+003,9.144373e+001
2.512252e+003,8.794461e+001
2.513216e+003,8.346793e+001
2.514180e+003,8.509076e+001
2.515145e+003,9.097577e+001
2.516109e+003,9.465530e+001
2.517073e+003,9.528470e+001
2.518037e+003,9.401599e+001
2.519001e+003,8.999847e+001
2.519966e+003,8.733862e+001
2.520930e+003,8.579855e+001
2.521894e+003,8.696622e+001
2.522858e+003,9.247891e+001
2.523823e+003,9.363129e+001
2.524787e+003,8.758026e+001
2.525751e+003,8.222903e+001
2.526715e+003,8.122305e+001
2.527680e+003,8.332767e+001
2.528644e+003,8.791232e+001
2.529608e+003,9.265656e+001
2.530572e+003,9.391907e+001
2.531537e+003,9.273599e+001
2.532501e+003,9.107822e+001
2.533465e+003,8.937988e+001
2.534429e+003,8.832431e+001
2.535394e+003,8.771472e+001
2.536358e+003,8.544128e+001
2.537322e+003,8.300119e+001
2.538286e+003,8.412579e+001
2.539250e+003,8.753519e+001
2.540215e+003,8.934384e+001
2.541179e+003,8.918069e+001
2.542143e+003,8.911533e+001
2.543107e+003,9.066367e+001
2.544072e+003,9.090112e+001
2.545036e+003,8.760611e+001
2.546000e+003,8.716565e+001
2.546964e+003,9.047803e+001
2.547928e+003,9.087915e+001
2.548893e+003,8.690680e+001
2.549857e+003,8.605264e+001
2.550821e+003,9.110999e+001
2.551785e+003,9.398346e+001
2.552750e+003,8.969806e+001
2.553714e+003,8.372900e+001
2.554678e+003,8.074124e+001
2.555642e+003,8.054663e+001
2.556607e+003,8.423685e+001
2.557571e+003,8.683243e+001
2.558535e+003,8.304562e+001
2.559499e+003,7.805829e+001
2.560464e+003,7.802689e+001
2.561428e+003,8.002924e+001
2.562392e+003,7.902686e+001
2.563356e+003,7.608392e+001
2.564321e+003,7.424847e+001
2.565285e+003,7.394406e+001
2.566249e+003,7.549484e+001
2.567213e+003,7.813910e+001
2.568177e+003,7.760736e+001
2.569142e+003,7.395062e+001
2.570106e+003,7.147519e+001
2.571070e+003,7.088629e+001
2.572034e+003,7.168359e+001
2.572999e+003,7.343558e+001
2.573963e+003,7.259799e+001
2.574927e+003,6.854553e+001
2.575891e+003,6.715793e+001
2.576855e+003,7.028455e+001
2.577820e+003,7.138513e+001
2.578784e+003,6.784436e+001
2.579748e+003,6.434760e+001
2.580712e+003,6.214920e+001
2.581677e+003,6.198080e+001
2.582641e+003,6.543115e+001
2.583605e+003,6.662872e+001
2.584569e+003,6.100510e+001
2.585534e+003,5.616049e+001
2.586498e+003,5.725256e+001
2.587462e+003,5.952173e+001
2.588426e+003,5.753073e+001
2.589391e+003,5.401239e+001
2.590355e+003,5.476019e+001
2.591319e+003,5.811703e+001
2.592283e+003,5.817288e+001
2.593248e+003,5.634485e+001
2.594212e+003,5.714429e+001
2.595176e+003,5.906436e+001
2.596140e+003,5.788519e+001
2.597104e+003,5.509695e+001
2.598069e+003,5.522540e+001
2.599033e+003,5.719366e+001
2.599997e+003,5.612256e+001
2.600961e+003,5.218845e+001
2.601926e+003,5.085416e+001
2.602890e+003,5.337701e+001
2.603854e+003,5.562610e+001
2.604818e+003,5.800690e+001
2.605782e+003,5.632187e+001
2.606747e+003,4.947922e+001
2.607711e+003,4.512558e+001
2.608675e+003,4.470297e+001
2.609639e+003,4.649982e+001
2.610604e+003,4.994180e+001
2.611568e+003,5.310803e+001
2.612532e+003,5.463882e+001
2.613496e+003,5.370566e+001
2.614461e+003,4.846341e+001
2.615425e+003,4.377798e+001
2.616389e+003,4.691620e+001
2.617353e+003,5.050009e+001
2.618318e+003,4.835992e+001
2.619282e+003,4.510626e+001
2.620246e+003,4.518121e+001
2.621210e+003,4.683923e+001
2.622175e+003,4.605548e+001
2.623139e+003,4.416934e+001
2.624103e+003,4.355414e+001
2.625067e+003,4.314743e+001
2.626031e+003,4.273734e+001
2.626996e+003,4.397766e+001
2.627960e+003,4.593546e+001
2.628924e+003,4.715933e+001
2.629888e+003,4.587939e+001
2.630853e+003,4.268869e+001
2.631817e+003,4.105048e+001
2.632781e+003,4.254004e+001
2.633745e+003,4.480316e+001
2.634709e+003,4.585815e+001
2.635674e+003,4.759464e+001
2.636638e+003,5.018533e+001
2.637602e+003,4.861676e+001
2.638566e+003,4.200400e+001
2.639531e+003,3.983926e+001
2.640495e+003,4.449747e+001
2.641459e+003,4.633582e+001
2.642423e+003,4.493475e+001
2.643388e+003,4.379385e+001
2.644352e+003,4.328305e+001
2.645316e+003,4.099973e+001
2.646280e+003,3.602054e+001
2.647245e+003,3.167804e+001
2.648209e+003,3.107596e+001
2.649173e+003,3.326422e+001
2.650137e+003,3.613483e+001
2.651102e+003,3.915137e+001
2.652066e+003,4.159152e+001
2.653030e+003,4.155084e+001
2.653994e+003,3.920639e+001
2.654958e+003,3.713834e+001
2.655923e+003,3.677866e+001
2.656887e+003,3.740561e+001
2.657851e+003,3.748462e+001
2.658815e+003,3.610779e+001
2.659780e+003,3.296371e+001
2.660744e+003,2.986557e+001
2.661708e+003,3.011630e+001
2.662672e+003,3.237860e+001
2.663636e+003,3.076804e+001
2.664601e+003,2.711624e+001
2.665565e+003,2.771628e+001
2.666529e+003,3.078491e+001
2.667493e+003,3.261404e+001
2.668458e+003,3.374762e+001
2.669422e+003,3.584219e+001
2.670386e+003,3.724246e+001
2.671350e+003,3.538834e+001
2.672315e+003,3.207297e+001
2.673279e+003,3.149591e+001
2.674243e+003,3.289124e+001
2.675207e+003,3.395523e+001
2.676172e+003,3.551047e+001
2.677136e+003,3.370935e+001
2.678100e+003,2.886633e+001
2.679064e+003,2.807315e+001
2.680029e+003,3.065359e+001
2.680993e+003,3.016699e+001
2.681957e+003,2.645212e+001
2.682921e+003,2.422763e+001
2.683885e+003,2.443689e+001
2.684850e+003,2.521066e+001
2.685814e+003,2.777676e+001
2.686778e+003,2.971329e+001
2.687742e+003,2.705963e+001
2.688707e+003,2.599704e+001
2.689671e+003,2.817651e+001
2.690635e+003,2.820639e+001
2.691599e+003,2.556467e+001
2.692563e+003,2.297333e+001
2.693528e+003,2.159900e+001
2.694492e+003,2.140036e+001
2.695456e+003,2.220828e+001
2.696420e+003,2.199603e+001
2.697385e+003,1.807272e+001
2.698349e+003,1.476672e+001
2.699313e+003,1.993811e+001
2.700277e+003,2.567273e+001
2.701242e+003,2.168311e+001
2.702206e+003,1.613217e+001
2.703170e+003,1.700787e+001
2.704134e+003,1.975772e+001
2.705099e+003,2.124481e+001
2.706063e+003,2.175491e+001
2.707027e+003,2.065717e+001
2.707991e+003,1.862289e+001
2.708956e+003,1.661938e+001
2.709920e+003,1.441199e+001
2.710884e+003,1.433139e+001
2.711848e+003,1.608871e+001
2.712813e+003,1.730270e+001
2.713777e+003,1.862369e+001
2.714741e+003,1.961340e+001
2.715705e+003,1.859210e+001
2.716669e+003,1.614096e+001
2.717634e+003,1.379471e+001
2.718598e+003,1.206256e+001
2.719562e+003,1.222324e+001
2.720526e+003,1.467340e+001
2.721490e+003,1.652228e+001
2.722455e+003,1.629327e+001
2.723419e+003,1.573840e+001
2.724383e+003,1.357834e+001
2.725347e+003,1.047064e+001
2.726312e+003,1.048849e+001
2.727276e+003,1.224271e+001
2.728240e+003,1.431857e+001
2.729204e+003,1.713425e+001
2.730169e+003,1.683224e+001
2.731133e+003,1.134131e+001
2.732097e+003,8.146454e+000
2.733061e+003,1.058160e+001
2.734026e+003,1.178827e+001
2.734990e+003,1.481589e+001
2.735954e+003,1.617023e+001
2.736918e+003,1.296960e+001
2.737883e+003,1.203580e+001
2.738847e+003,1.391498e+001
2.739811e+003,1.542319e+001
2.740775e+003,1.583774e+001
2.741740e+003,1.496481e+001
2.742704e+003,1.362253e+001
2.743668e+003,1.160428e+001
2.744632e+003,6.097534e+000
2.745596e+003,4.247528e+000
2.746561e+003,1.269330e+001
2.747525e+003,1.604706e+001
2.748489e+003,9.164551e+000
2.749453e+003,5.032410e+000
2.750417e+003,7.910675e+000
2.751382e+003,1.186932e+001
2.752346e+003,1.337897e+001
2.753310e+003,1.323425e+001
2.754274e+003,1.201172e+001
2.755239e+003,1.062997e+001
2.756203e+003,1.040649e+001
2.757167e+003,1.075534e+001
2.758131e+003,1.131387e+001
2.759096e+003,1.131949e+001
2.760060e+003,1.082501e+001
2.761024e+003,9.867035e+000
2.761988e+003,7.781433e+000
2.762953e+003,5.895447e+000
2.763917e+003,4.762146e+000
2.764881e+003,4.415283e+000
2.765845e+003,4.942108e+000
2.766810e+003,5.657532e+000
2.767774e+003,6.280701e+000
2.768738e+003,7.225342e+000
2.769702e+003,7.741150e+000
2.770667e+003,9.168274e+000
2.771631e+003,1.270404e+001
2.772595e+003,1.460214e+001
2.773559e+003,1.400711e+001
2.774523e+003,1.230154e+001
2.775488e+003,9.846558e+000
2.776452e+003,8.944794e+000
2.777416e+003,8.937500e+000
2.778380e+003,6.937561e+000
2.779344e+003,7.558350e+000
2.780309e+003,1.187720e+001
2.781273e+003,1.150003e+001
2.782237e+003,1.060696e+001
2.783201e+003,1.261707e+001
2.784166e+003,1.276648e+001
2.785130e+003,1.108386e+001
2.786094e+003,9.555450e+000
2.787058e+003,9.895508e+000
2.788023e+003,1.162567e+001
2.788987e+003,1.100839e+001
2.789951e+003,8.355377e+000
2.790915e+003,8.338806e+000
2.791880e+003,1.068350e+001
2.792844e+003,1.185687e+001
2.793808e+003,1.263361e+001
2.794772e+003,1.310840e+001
2.795737e+003,1.200562e+001
2.796701e+003,1.158066e+001
2.797665e+003,1.174854e+001
2.798629e+003,9.007019e+000
2.799594e+003,5.368164e+000
2.800558e+003,5.869263e+000
2.801522e+003,9.230499e+000
2.802486e+003,1.055853e+001
2.803450e+003,8.563171e+000
2.804415e+003,7.594635e+000
2.805379e+003,7.942902e+000
2.806343e+003,1.022620e+001
2.807307e+003,1.543961e+001
2.808271e+003,1.469812e+001
2.809236e+003,7.809631e+000
2.810200e+003,7.326111e+000
2.811164e+003,1.370752e+001
2.812128e+003,1.395886e+001
2.813093e+003,7.176025e+000
2.814057e+003,8.031982e+000
2.815021e+003,1.435107e+001
2.815985e+003,1.302789e+001
2.816950e+003,7.865021e+000
2.817914e+003,7.837646e+000
2.818878e+003,1.085355e+001
2.819842e+003,1.191867e+001
2.820807e+003,1.159717e+001
2.821771e+003,1.106091e+001
2.822735e+003,9.390533e+000
2.823699e+003,6.804382e+000
2.824664e+003,4.931641e+000
2.825628e+003,4.913452e+000
2.826592e+003,7.692230e+000
2.827556e+003,9.792877e+000
2.828521e+003,9.465942e+000
2.829485e+003,9.680359e+000
2.830449e+003,1.159998e+001
2.831413e+003,1.376001e+001
2.832377e+003,1.471365e+001
2.833342e+003,1.345258e+001
2.834306e+003,1.088785e+001
2.835270e+003,9.084991e+000
2.836234e+003,8.215088e+000
2.837198e+003,7.708313e+000
2.838163e+003,8.042755e+000
2.839127e+003,7.731415e+000
2.840091e+003,6.578003e+000
2.841055e+003,7.345154e+000
2.842020e+003,9.329315e+000
2.842984e+003,1.042111e+001
2.843948e+003,1.070679e+001
2.844912e+003,1.093884e+001
2.845877e+003,1.120782e+001
2.846841e+003,1.014716e+001
2.847805e+003,7.163605e+000
2.848769e+003,5.217712e+000
2.849734e+003,4.405426e+000
2.850698e+003,4.348450e+000
2.851662e+003,5.125458e+000
2.852626e+003,4.695557e+000
2.853591e+003,3.930939e+000
2.854555e+003,7.791016e+000
2.855519e+003,1.495813e+001
2.856483e+003,1.781165e+001
2.857448e+003,1.488129e+001
2.858412e+003,1.105228e+001
2.859376e+003,8.341171e+000
2.860340e+003,7.910690e+000
2.861304e+003,1.032684e+001
2.862269e+003,1.114915e+001
2.863233e+003,9.374893e+000
2.864197e+003,6.624390e+000
2.865161e+003,4.805313e+000
2.866125e+003,6.046158e+000
2.867090e+003,9.095291e+000
2.868054e+003,1.115045e+001
2.869018e+003,1.147243e+001
2.869982e+003,1.097748e+001
2.870947e+003,1.139954e+001
2.871911e+003,1.183794e+001
2.872875e+003,9.594177e+000
2.873839e+003,9.193192e+000
2.874804e+003,1.115085e+001
2.875768e+003,1.266693e+001
2.876732e+003,1.376093e+001
2.877696e+003,1.585393e+001
2.878661e+003,1.870274e+001
2.879625e+003,2.081866e+001
2.880589e+003,2.167311e+001
2.881553e+003,2.085464e+001
2.882518e+003,1.803230e+001
2.883482e+003,1.779541e+001
2.884446e+003,2.076060e+001
2.885410e+003,2.231689e+001
2.886375e+003,2.234167e+001
2.887339e+003,2.261571e+001
2.888303e+003,2.335307e+001
2.889267e+003,2.366493e+001
2.890231e+003,2.394882e+001
2.891196e+003,2.686572e+001
2.892160e+003,3.222955e+001
2.893124e+003,3.410851e+001
2.894088e+003,3.110373e+001
2.895052e+003,3.130798e+001
2.896017e+003,3.508398e+001
2.896981e+003,3.657956e+001
2.897945e+003,3.609834e+001
2.898909e+003,3.714336e+001
2.899874e+003,3.931090e+001
2.900838e+003,4.008818e+001
2.901802e+003,3.944591e+001
2.902766e+003,3.814954e+001
2.903731e+003,3.685429e+001
2.904695e+003,3.930403e+001
2.905659e+003,4.563190e+001
2.906623e+003,4.851581e+001
2.907588e+003,4.825323e+001
2.908552e+003,4.985608e+001
2.909516e+003,5.304440e+001
2.910480e+003,5.689069e+001
2.911445e+003,6.045688e+001
2.912409e+003,6.205521e+001
2.913373e+003,6.196004e+001
2.914337e+003,6.097423e+001
2.915302e+003,5.976132e+001
2.916266e+003,6.084813e+001
2.917230e+003,6.407225e+001
2.918194e+003,6.806256e+001
2.919158e+003,7.223613e+001
2.920123e+003,7.311745e+001
2.921087e+003,7.266167e+001
2.922051e+003,7.565820e+001
2.923015e+003,8.042632e+001
2.923979e+003,8.307050e+001
2.924944e+003,8.426364e+001
2.925908e+003,8.634105e+001
2.926872e+003,8.952585e+001
2.927836e+003,9.500264e+001
2.928801e+003,1.015322e+002
2.929765e+003,1.025784e+002
2.930729e+003,1.012771e+002
2.931693e+003,1.051946e+002
2.932658e+003,1.105544e+002
2.933622e+003,1.118027e+002
2.934586e+003,1.103776e+002
2.935550e+003,1.074561e+002
2.936515e+003,1.054202e+002
2.937479e+003,1.077636e+002
2.938443e+003,1.123731e+002
2.939407e+003,1.148724e+002
2.940372e+003,1.156377e+002
2.941336e+003,1.138117e+002
2.942300e+003,1.124936e+002
2.943264e+003,1.171741e+002
2.944229e+003,1.225848e+002
2.945193e+003,1.229468e+002
2.946157e+003,1.218684e+002
2.947121e+003,1.223429e+002
2.948085e+003,1.237170e+002
2.949050e+003,1.254035e+002
2.950014e+003,1.265539e+002
2.950978e+003,1.251333e+002
2.951942e+003,1.235176e+002
2.952906e+003,1.248139e+002
2.953871e+003,1.264439e+002
2.954835e+003,1.248355e+002
2.955799e+003,1.258351e+002
2.956763e+003,1.338947e+002
2.957728e+003,1.405208e+002
2.958692e+003,1.402945e+002
2.959656e+003,1.375605e+002
2.960620e+003,1.359590e+002
2.961585e+003,1.351248e+002
2.962549e+003,1.343004e+002
2.963513e+003,1.347584e+002
2.964477e+003,1.385868e+002
2.965442e+003,1.414381e+002
2.966406e+003,1.415049e+002
2.967370e+003,1.427822e+002
2.968334e+003,1.466640e+002
2.969299e+003,1.487027e+002
2.970263e+003,1.469371e+002
2.971227e+003,1.468141e+002
2.972191e+003,1.522022e+002
2.973156e+003,1.558923e+002
2.974120e+003,1.537609e+002
2.975084e+003,1.503042e+002
2.976048e+003,1.446296e+002
2.977012e+003,1.438206e+002
2.977977e+003,1.488522e+002
2.978941e+003,1.548255e+002
2.979905e+003,1.599927e+002
2.980869e+003,1.626892e+002
2.981833e+003,1.627129e+002
2.982798e+003,1.635734e+002
2.983762e+003,1.669869e+002
2.984726e+003,1.671621e+002
2.985690e+003,1.625957e+002
2.986655e+003,1.612107e+002
2.987619e+003,1.631076e+002
2.988583e+003,1.670474e+002
2.989547e+003,1.717448e+002
2.990512e+003,1.736498e+002
2.991476e+003,1.728934e+002
2.992440e+003,1.718156e+002
2.993404e+003,1.709877e+002
2.994369e+003,1.710191e+002
2.995333e+003,1.718280e+002
2.996297e+003,1.712028e+002
2.997261e+003,1.695247e+002
2.998226e+003,1.684402e+002
2.999190e+003,1.687533e+002
3.000154e+003,1.741805e+002
3.001118e+003,1.806808e+002
3.002083e+003,1.799894e+002
3.003047e+003,1.751925e+002
3.004011e+003,1.740166e+002
3.004975e+003,1.750199e+002
3.005939e+003,1.744934e+002
3.006904e+003,1.737328e+002
3.007868e+003,1.766488e+002
3.008832e+003,1.812064e+002
3.009796e+003,1.854464e+002
3.010760e+003,1.886423e+002
3.011725e+003,1.897821e+002
3.012689e+003,1.899439e+002
3.013653e+003,1.898934e+002
3.014617e+003,1.895861e+002
3.015582e+003,1.887809e+002
3.016546e+003,1.892200e+002
3.017510e+003,1.943993e+002
3.018474e+003,1.993498e+002
3.019439e+003,1.990783e+002
3.020403e+003,1.975122e+002
3.021367e+003,1.950910e+002
3.022331e+003,1.950216e+002
3.023296e+003,1.986886e+002
3.024260e+003,2.024166e+002
3.025224e+003,2.044433e+002
3.026188e+003,2.064504e+002
3.027153e+003,2.095479e+002
3.028117e+003,2.116569e+002
3.029081e+003,2.105344e+002
3.030045e+003,2.104397e+002
3.031010e+003,2.129878e+002
3.031974e+003,2.129077e+002
3.032938e+003,2.095784e+002
3.033902e+003,2.106046e+002
3.034866e+003,2.165584e+002
3.035831e+003,2.215055e+002
3.036795e+003,2.235863e+002
3.037759e+003,2.230481e+002
3.038723e+003,2.196382e+002
3.039688e+003,2.198035e+002
3.040652e+003,2.243913e+002
3.041616e+003,2.266605e+002
3.042580e+003,2.270177e+002
3.043544e+003,2.284447e+002
3.044509e+003,2.303533e+002
3.045473e+003,2.298881e+002
3.046437e+003,2.283191e+002
3.047401e+003,2.296760e+002
3.048366e+003,2.330531e+002
3.049330e+003,2.348737e+002
3.050294e+003,2.358023e+002
3.051258e+003,2.387294e+002
3.052223e+003,2.424431e+002
3.053187e+003,2.445052e+002
3.054151e+003,2.451952e+002
3.055115e+003,2.433395e+002
3.056080e+003,2.421905e+002
3.057044e+003,2.457700e+002
3.058008e+003,2.497393e+002
3.058972e+003,2.502251e+002
3.059937e+003,2.495177e+002
3.060901e+003,2.500458e+002
3.061865e+003,2.519373e+002
3.062829e+003,2.574341e+002
3.063793e+003,2.611999e+002
3.064758e+003,2.576928e+002
3.065722e+003,2.560898e+002
3.066686e+003,2.595534e+002
3.067650e+003,2.621985e+002
3.068615e+003,2.618239e+002
3.069579e+003,2.611927e+002
3.070543e+003,2.617118e+002
3.071507e+003,2.622038e+002
3.072471e+003,2.620878e+002
3.073436e+003,2.617169e+002
3.074400e+003,2.604343e+002
3.075364e+003,2.620712e+002
3.076328e+003,2.666856e+002
3.077293e+003,2.705261e+002
3.078257e+003,2.730521e+002
3.079221e+003,2.746045e+002
3.080185e+003,2.755136e+002
3.081150e+003,2.767790e+002
3.082114e+003,2.782937e+002
3.083078e+003,2.776405e+002
3.084042e+003,2.751145e+002
3.085007e+003,2.751944e+002
3.085971e+003,2.768385e+002
3.086935e+003,2.767173e+002
3.087899e+003,2.761816e+002
3.088864e+003,2.781502e+002
3.089828e+003,2.808500e+002
3.090792e+003,2.813003e+002
3.091756e+003,2.812581e+002
3.092720e+003,2.831858e+002
3.093685e+003,2.856055e+002
3.094649e+003,2.864030e+002
3.095613e+003,2.857074e+002
3.096577e+003,2.815097e+002
3.097542e+003,2.788669e+002
3.098506e+003,2.829728e+002
3.099470e+003,2.861217e+002
3.100434e+003,2.854235e+002
3.101398e+003,2.858330e+002
3.102363e+003,2.897743e+002
3.103327e+003,2.924668e+002
3.104291e+003,2.906952e+002
3.105255e+003,2.890651e+002
3.106220e+003,2.895945e+002
3.107184e+003,2.908790e+002
3.108148e+003,2.929408e+002
3.109112e+003,2.946538e+002
3.110077e+003,2.959680e+002
3.111041e+003,2.978208e+002
3.112005e+003,2.999453e+002
3.112969e+003,3.001165e+002
3.113934e+003,2.986514e+002
3.114898e+003,3.010885e+002
3.115862e+003,3.069379e+002
3.116826e+003,3.082868e+002
3.117791e+003,3.060597e+002
3.118755e+003,3.035247e+002
3.119719e+003,3.017380e+002
3.120683e+003,3.025134e+002
3.121647e+003,3.049706e+002
3.122612e+003,3.091904e+002
3.123576e+003,3.124303e+002
3.124540e+003,3.117368e+002
3.125504e+003,3.095112e+002
3.126469e+003,3.088676e+002
3.127433e+003,3.094839e+002
3.128397e+003,3.117651e+002
3.129361e+003,3.140050e+002
3.130325e+003,3.145665e+002
3.131290e+003,3.159250e+002
3.132254e+003,3.188944e+002
3.133218e+003,3.220884e+002
3.134182e+003,3.248655e+002
3.135147e+003,3.265700e+002
3.136111e+003,3.268807e+002
3.137075e+003,3.264293e+002
3.138039e+003,3.248586e+002
3.139004e+003,3.242811e+002
3.139968e+003,3.246609e+002
3.140932e+003,3.276833e+002
3.141896e+003,3.325006e+002
3.142861e+003,3.346871e+002
3.143825e+003,3.345360e+002
3.144789e+003,3.340417e+002
3.145753e+003,3.340590e+002
3.146718e+003,3.357560e+002
3.147682e+003,3.388220e+002
3.148646e+003,3.431575e+002
3.149610e+003,3.471845e+002
3.150574e+003,3.445009e+002
3.151539e+003,3.410577e+002
3.152503e+003,3.461753e+002
3.153467e+003,3.516219e+002
3.154431e+003,3.498205e+002
3.155396e+003,3.478492e+002
3.156360e+003,3.505222e+002
3.157324e+003,3.531523e+002
3.158288e+003,3.513799e+002
3.159252e+003,3.502940e+002
3.160217e+003,3.550840e+002
3.161181e+003,3.587897e+002
3.162145e+003,3.594187e+002
3.163109e+003,3.609951e+002
3.164074e+003,3.639025e+002
3.165038e+003,3.636412e+002
3.166002e+003,3.600307e+002
3.166966e+003,3.567899e+002
3.167931e+003,3.551135e+002
3.168895e+003,3.562097e+002
3.169859e+003,3.598851e+002
3.170823e+003,3.627008e+002
3.171788e+003,3.645990e+002
3.172752e+003,3.642697e+002
3.173716e+003,3.634568e+002
3.174680e+003,3.664183e+002
3.175645e+003,3.701661e+002
3.176609e+003,3.693286e+002
3.177573e+003,3.678965e+002
3.178537e+003,3.700121e+002
3.179501e+003,3.732271e+002
3.180466e+003,3.744753e+002
3.181430e+003,3.745948e+002
3.182394e+003,3.738497e+002
3.183358e+003,3.731290e+002
3.184323e+003,3.722792e+002
3.185287e+003,3.732558e+002
3.186251e+003,3.765359e+002
3.187215e+003,3.781830e+002
3.188179e+003,3.770706e+002
3.189144e+003,3.753284e+002
3.190108e+003,3.737391e+002
3.191072e+003,3.743360e+002
3.192036e+003,3.776877e+002
3.193001e+003,3.809657e+002
3.193965e+003,3.838866e+002
3.194929e+003,3.833564e+002
3.195893e+003,3.812811e+002
3.196858e+003,3.827324e+002
3.197822e+003,3.857162e+002
3.198786e+003,3.851454e+002
3.199750e+003,3.834918e+002
3.200715e+003,3.844418e+002
3.201679e+003,3.868184e+002
3.202643e+003,3.894484e+002
3.203607e+003,3.910305e+002
3.204572e+003,3.897949e+002
3.205536e+003,3.875889e+002
3.206500e+003,3.844853e+002
3.207464e+003,3.832032e+002
3.208428e+003,3.846025e+002
3.209393e+003,3.870159e+002
3.210357e+003,3.896719e+002
3.211321e+003,3.928092e+002
3.212285e+003,3.968345e+002
3.213250e+003,3.991906e+002
3.214214e+003,3.996219e+002
3.215178e+003,3.995261e+002
3.216142e+003,3.988991e+002
3.217106e+003,3.967870e+002
3.218071e+003,3.944419e+002
3.219035e+003,3.945771e+002
3.219999e+003,3.968413e+002
3.220963e+003,4.000744e+002
3.221928e+003,4.030759e+002
3.222892e+003,4.034636e+002
3.223856e+003,4.027546e+002
3.224820e+003,4.030270e+002
3.225785e+003,4.041163e+002
3.226749e+003,4.065637e+002
3.227713e+003,4.088569e+002
3.228677e+003,4.107119e+002
3.229642e+003,4.102603e+002
3.230606e+003,4.071124e+002
3.231570e+003,4.056108e+002
3.232534e+003,4.078153e+002
3.233499e+003,4.111644e+002
3.234463e+003,4.155656e+002
3.235427e+003,4.184235e+002
3.236391e+003,4.197235e+002
3.237355e+003,4.184872e+002
3.238320e+003,4.159016e+002
3.239284e+003,4.145839e+002
3.240248e+003,4.150239e+002
3.241212e+003,4.185958e+002
3.242177e+003,4.227304e+002
3.243141e+003,4.235818e+002
3.244105e+003,4.233249e+002
3.245069e+003,4.267824e+002
3.246033e+003,4.302822e+002
3.246998e+003,4.293968e+002
3.247962e+003,4.281001e+002
3.248926e+003,4.274263e+002
3.249890e+003,4.301414e+002
3.250855e+003,4.368119e+002
3.251819e+003,4.396360e+002
3.252783e+003,4.360352e+002
3.253747e+003,4.335486e+002
3.254712e+003,4.351016e+002
3.255676e+003,4.367438e+002
3.256640e+003,4.382379e+002
3.257604e+003,4.417059e+002
3.258569e+003,4.456752e+002
3.259533e+003,4.446333e+002
3.260497e+003,4.410990e+002
3.261461e+003,4.388412e+002
3.262426e+003,4.394225e+002
3.263390e+003,4.446001e+002
3.264354e+003,4.509449e+002
3.265318e+003,4.537546e+002
3.266282e+003,4.544653e+002
3.267247e+003,4.532686e+002
3.268211e+003,4.527242e+002
3.269175e+003,4.543215e+002
3.270139e+003,4.555428e+002
3.271104e+003,4.558904e+002
3.272068e+003,4.556062e+002
3.273032e+003,4.551653e+002
3.273996e+003,4.569888e+002
3.274960e+003,4.615837e+002
3.275925e+003,4.637390e+002
3.276889e+003,4.633303e+002
3.277853e+003,4.619970e+002
3.278817e+003,4.606787e+002
3.279782e+003,4.621660e+002
3.280746e+003,4.653146e+002
3.281710e+003,4.704575e+002
3.282674e+003,4.729880e+002
3.283639e+003,4.684880e+002
3.284603e+003,4.644982e+002
3.285567e+003,4.686078e+002
3.286531e+003,4.730028e+002
3.287496e+003,4.695192e+002
3.288460e+003,4.669217e+002
3.289424e+003,4.672558e+002
3.290388e+003,4.696835e+002
3.291353e+003,4.736966e+002
3.292317e+003,4.748268e+002
3.293281e+003,4.733887e+002
3.294245e+003,4.738249e+002
3.295209e+003,4.765299e+002
3.296174e+003,4.786111e+002
3.297138e+003,4.800265e+002
3.298102e+003,4.802118e+002
3.299066e+003,4.803569e+002
3.300031e+003,4.841393e+002
3.300995e+003,4.873383e+002
3.301959e+003,4.843107e+002
3.302923e+003,4.818473e+002
3.303887e+003,4.829249e+002
3.304852e+003,4.847514e+002
3.305816e+003,4.856876e+002
3.306780e+003,4.867439e+002
3.307744e+003,4.884024e+002
3.308709e+003,4.906498e+002
3.309673e+003,4.935895e+002
3.310637e+003,4.956027e+002
3.311601e+003,4.970225e+002
3.312566e+003,5.009768e+002
3.313530e+003,5.049230e+002
3.314494e+003,5.011725e+002
3.315458e+003,4.942260e+002
3.316423e+003,4.920785e+002
3.317387e+003,4.926337e+002
3.318351e+003,4.923718e+002
3.319315e+003,4.925509e+002
3.320280e+003,4.956263e+002
3.321244e+003,4.973522e+002
3.322208e+003,4.954299e+002
3.323172e+003,4.963586e+002
3.324136e+003,5.012995e+002
3.325101e+003,5.037988e+002
3.326065e+003,5.023394e+002
3.327029e+003,5.022693e+002
3.327993e+003,5.048209e+002
3.328958e+003,5.063081e+002
3.329922e+003,5.071205e+002
3.330886e+003,5.113866e+002
3.331850e+003,5.160508e+002
3.332814e+003,5.143653e+002
3.333779e+003,5.116693e+002
3.334743e+003,5.137802e+002
3.335707e+003,5.165361e+002
3.336671e+003,5.169701e+002
3.337636e+003,5.155862e+002
3.338600e+003,5.114715e+002
3.339564e+003,5.109556e+002
3.340528e+003,5.202251e+002
3.341493e+003,5.248810e+002
3.342457e+003,5.245350e+002
3.343421e+003,5.249465e+002
3.344385e+003,5.268275e+002
3.345350e+003,5.303454e+002
3.346314e+003,5.341221e+002
3.347278e+003,5.347889e+002
3.348242e+003,5.336971e+002
3.349207e+003,5.335040e+002
3.350171e+003,5.343060e+002
3.351135e+003,5.365777e+002
3.352099e+003,5.395100e+002
3.353063e+003,5.438596e+002
3.354028e+003,5.456415e+002
3.354992e+003,5.438284e+002
3.355956e+003,5.408351e+002
3.356920e+003,5.379208e+002
3.357885e+003,5.371627e+002
3.358849e+003,5.393853e+002
3.359813e+003,5.416875e+002
3.360777e+003,5.439713e+002
3.361741e+003,5.466330e+002
3.362706e+003,5.492579e+002
3.363670e+003,5.511260e+002
3.364634e+003,5.522155e+002
3.365598e+003,5.517785e+002
3.366563e+003,5.526061e+002
3.367527e+003,5.568084e+002
3.368491e+003,5.600355e+002
3.369455e+003,5.583799e+002
3.370420e+003,5.560721e+002
3.371384e+003,5.537383e+002
3.372348e+003,5.551666e+002
3.373312e+003,5.602802e+002
3.374277e+003,5.637927e+002
3.375241e+003,5.651655e+002
3.376205e+003,5.644338e+002
3.377169e+003,5.625369e+002
3.378134e+003,5.611188e+002
3.379098e+003,5.607467e+002
3.380062e+003,5.627062e+002
3.381026e+003,5.656642e+002
3.381990e+003,5.683559e+002
3.382955e+003,5.702716e+002
3.383919e+003,5.709172e+002
3.384883e+003,5.716125e+002
3.385847e+003,5.725613e+002
3.386812e+003,5.711861e+002
3.387776e+003,5.677660e+002
3.388740e+003,5.693431e+002
3.389704e+003,5.768669e+002
3.390668e+003,5.775892e+002
3.391633e+003,5.728734e+002
3.392597e+003,5.695267e+002
3.393561e+003,5.683324e+002
3.394525e+003,5.728591e+002
3.395490e+003,5.766035e+002
3.396454e+003,5.744340e+002
3.397418e+003,5.724433e+002
3.398382e+003,5.740654e+002
3.399347e+003,5.787674e+002
3.400311e+003,5.875285e+002
3.401275e+003,5.900596e+002
3.402239e+003,5.823701e+002
3.403204e+003,5.830425e+002
3.404168e+003,5.900091e+002
3.405132e+003,5.929875e+002
3.406096e+003,5.924777e+002
3.407061e+003,5.909880e+002
3.408025e+003,5.886462e+002
3.408989e+003,5.847874e+002
3.409953e+003,5.826326e+002
3.410917e+003,5.876244e+002
3.411882e+003,5.914660e+002
3.412846e+003,5.840610e+002
3.413810e+003,5.836251e+002
3.414774e+003,5.930425e+002
3.415739e+003,5.965449e+002
3.416703e+003,5.935628e+002
3.417667e+003,5.930406e+002
3.418631e+003,5.955826e+002
3.419595e+003,5.962454e+002
3.420560e+003,5.961495e+002
3.421524e+003,5.998030e+002
3.422488e+003,6.037523e+002
3.423452e+003,6.011249e+002
3.424417e+003,5.981941e+002
3.425381e+003,5.985191e+002
3.426345e+003,6.004500e+002
3.427309e+003,6.033693e+002
3.428274e+003,6.040258e+002
3.429238e+003,6.018526e+002
3.430202e+003,6.022241e+002
3.431166e+003,6.060611e+002
3.432131e+003,6.059581e+002
3.433095e+003,6.032497e+002
3.434059e+003,6.037255e+002
3.435023e+003,6.057160e+002
3.435988e+003,6.071707e+002
3.436952e+003,6.085399e+002
3.437916e+003,6.101733e+002
3.438880e+003,6.121055e+002
3.439844e+003,6.143408e+002
3.440809e+003,6.157203e+002
3.441773e+003,6.150193e+002
3.442737e+003,6.166149e+002
3.443701e+003,6.207560e+002
3.444666e+003,6.183396e+002
3.445630e+003,6.132447e+002
3.446594e+003,6.180557e+002
3.447558e+003,6.262000e+002
3.448522e+003,6.267446e+002
3.449487e+003,6.249077e+002
3.450451e+003,6.257646e+002
3.451415e+003,6.276047e+002
3.452379e+003,6.285565e+002
3.453344e+003,6.307963e+002
3.454308e+003,6.357033e+002
3.455272e+003,6.371191e+002
3.456236e+003,6.354645e+002
3.457201e+003,6.361693e+002
3.458165e+003,6.390071e+002
3.459129e+003,6.407368e+002
3.460093e+003,6.422668e+002
3.461058e+003,6.460402e+002
3.462022e+003,6.496390e+002
3.462986e+003,6.480480e+002
3.463950e+003,6.460418e+002
3.464915e+003,6.460443e+002
3.465879e+003,6.487062e+002
3.466843e+003,6.540171e+002
3.467807e+003,6.573959e+002
3.468771e+003,6.584608e+002
3.469736e+003,6.616376e+002
3.470700e+003,6.659097e+002
3.471664e+003,6.621984e+002
3.472628e+003,6.547825e+002
3.473593e+003,6.577761e+002
3.474557e+003,6.636585e+002
3.475521e+003,6.637405e+002
3.476485e+003,6.645848e+002
3.477449e+003,6.688392e+002
3.478414e+003,6.723771e+002
3.479378e+003,6.739366e+002
3.480342e+003,6.767761e+002
3.481306e+003,6.816827e+002
3.482271e+003,6.799036e+002
3.483235e+003,6.726777e+002
3.484199e+003,6.748122e+002
3.485163e+003,6.810948e+002
3.486128e+003,6.832745e+002
3.487092e+003,6.848439e+002
3.488056e+003,6.886300e+002
3.489020e+003,6.929863e+002
3.489985e+003,6.969820e+002
3.490949e+003,6.987913e+002
3.491913e+003,6.969575e+002
3.492877e+003,6.971480e+002
3.493842e+003,6.998701e+002
3.494806e+003,6.988539e+002
3.495770e+003,6.959299e+002
3.496734e+003,6.947508e+002
3.497698e+003,6.961922e+002
3.498663e+003,7.012980e+002
3.499627e+003,7.067037e+002
3.500591e+003,0.000000e+000
