9.974011e+001,3.974177e+002
1.007043e+002,3.979562e+002
1.016686e+002,3.987467e+002
1.026328e+002,3.992449e+002
1.035970e+002,4.001172e+002
1.045613e+002,4.031262e+002
1.055255e+002,4.065759e+002
1.064897e+002,4.069509e+002
1.074540e+002,4.006249e+002
1.084182e+002,3.942412e+002
1.093824e+002,3.872186e+002
1.103467e+002,3.799390e+002
1.113109e+002,3.741449e+002
1.122751e+002,3.741044e+002
1.132394e+002,3.761005e+002
1.142036e+002,3.785928e+002
1.151678e+002,3.804479e+002
1.161321e+002,3.811205e+002
1.170963e+002,3.802202e+002
1.180605e+002,3.780280e+002
1.190248e+002,3.750129e+002
1.199890e+002,3.717620e+002
1.209532e+002,3.688928e+002
1.219175e+002,3.669552e+002
1.228817e+002,3.661284e+002
1.238459e+002,3.659573e+002
1.248102e+002,3.655945e+002
1.257744e+002,3.645675e+002
1.267386e+002,3.635327e+002
1.277029e+002,3.621649e+002
1.286671e+002,3.604138e+002
1.296313e+002,3.585252e+002
1.305956e+002,3.572468e+002
1.315598e+002,3.559349e+002
1.325240e+002,3.546022e+002
1.334883e+002,3.532576e+002
1.344525e+002,3.517694e+002
1.354167e+002,3.485908e+002
1.363810e+002,3.446198e+002
1.373452e+002,3.416094e+002
1.383094e+002,3.411462e+002
1.392737e+002,3.440547e+002
1.402379e+002,3.445471e+002
1.412021e+002,3.414670e+002
1.421664e+002,3.368857e+002
1.431306e+002,3.339859e+002
1.440948e+002,3.347495e+002
1.450591e+002,3.356532e+002
1.460233e+002,3.362108e+002
1.469875e+002,3.363451e+002
1.479518e+002,3.362239e+002
1.489160e+002,3.358331e+002
1.498802e+002,3.349324e+002
1.508445e+002,3.337031e+002
1.518087e+002,3.324037e+002
1.527729e+002,3.314323e+002
1.537372e+002,3.309741e+002
1.547014e+002,3.301049e+002
1.556656e+002,3.281870e+002
1.566299e+002,3.249176e+002
1.575941e+002,3.204727e+002
1.585583e+002,3.168936e+002
1.595226e+002,3.141047e+002
1.604868e+002,3.120874e+002
1.614510e+002,3.108041e+002
1.624153e+002,3.102216e+002
1.633795e+002,3.092205e+002
1.643438e+002,3.077463e+002
1.653080e+002,3.064134e+002
1.662722e+002,3.060314e+002
1.672365e+002,3.078348e+002
1.682007e+002,3.094993e+002
1.691649e+002,3.105037e+002
1.701292e+002,3.107489e+002
1.710934e+002,3.102153e+002
1.720576e+002,3.075745e+002
1.730219e+002,3.040742e+002
1.739861e+002,3.017995e+002
1.749503e+002,3.013055e+002
1.759146e+002,3.021532e+002
1.768788e+002,3.011501e+002
1.778430e+002,2.988530e+002
1.788073e+002,2.971431e+002
1.797715e+002,2.974826e+002
1.807357e+002,3.011115e+002
1.817000e+002,3.027976e+002
1.826642e+002,3.000646e+002
1.836284e+002,2.959832e+002
1.845927e+002,2.927882e+002
1.855569e+002,2.918304e+002
1.865211e+002,2.913614e+002
1.874854e+002,2.915822e+002
1.884496e+002,2.921289e+002
1.894138e+002,2.923495e+002
1.903781e+002,2.909771e+002
1.913423e+002,2.887090e+002
1.923065e+002,2.870215e+002
1.932708e+002,2.857311e+002
1.942350e+002,2.846017e+002
1.951992e+002,2.836901e+002
1.961635e+002,2.838595e+002
1.971277e+002,2.838057e+002
1.980919e+002,2.830783e+002
1.990562e+002,2.817468e+002
2.000204e+002,2.813018e+002
2.009846e+002,2.832908e+002
2.019489e+002,2.846279e+002
2.029131e+002,2.839199e+002
2.038773e+002,2.807868e+002
2.048416e+002,2.776094e+002
2.058058e+002,2.764411e+002
2.067700e+002,2.760489e+002
2.077343e+002,2.754525e+002
2.086985e+002,2.739493e+002
2.096627e+002,2.722172e+002
2.106270e+002,2.729916e+002
2.115912e+002,2.758245e+002
2.125554e+002,2.790530e+002
2.135197e+002,2.807521e+002
2.144839e+002,2.798881e+002
2.154481e+002,2.789412e+002
2.164124e+002,2.784998e+002
2.173766e+002,2.782165e+002
2.183408e+002,2.773620e+002
2.193051e+002,2.747727e+002
2.202693e+002,2.726930e+002
2.212335e+002,2.712877e+002
2.221978e+002,2.705186e+002
2.231620e+002,2.703672e+002
2.241262e+002,2.722857e+002
2.250904e+002,2.744286e+002
2.260547e+002,2.747069e+002
2.270189e+002,2.729047e+002
2.279831e+002,2.699297e+002
2.289474e+002,2.692018e+002
2.299116e+002,2.705084e+002
2.308758e+002,2.717291e+002
2.318401e+002,2.721864e+002
2.328043e+002,2.719433e+002
2.337685e+002,2.721265e+002
2.347328e+002,2.723412e+002
2.356970e+002,2.718902e+002
2.366612e+002,2.703329e+002
2.376255e+002,2.675582e+002
2.385897e+002,2.657743e+002
2.395539e+002,2.660015e+002
2.405182e+002,2.670206e+002
2.414824e+002,2.683572e+002
2.424466e+002,2.698112e+002
2.434109e+002,2.708199e+002
2.443751e+002,2.700297e+002
2.453393e+002,2.682559e+002
2.463036e+002,2.667206e+002
2.472678e+002,2.668052e+002
2.482320e+002,2.689332e+002
2.491963e+002,2.705938e+002
2.501605e+002,2.714562e+002
2.511247e+002,2.719593e+002
2.520890e+002,2.728973e+002
2.530532e+002,2.749938e+002
2.540174e+002,2.763818e+002
2.549817e+002,2.770771e+002
2.559459e+002,2.774456e+002
2.569102e+002,2.779495e+002
2.578744e+002,2.782739e+002
2.588386e+002,2.777531e+002
2.598029e+002,2.766152e+002
2.607671e+002,2.752142e+002
2.617313e+002,2.739479e+002
2.626956e+002,2.729884e+002
2.636598e+002,2.727098e+002
2.646240e+002,2.733289e+002
2.655883e+002,2.746750e+002
2.665525e+002,2.763914e+002
2.675167e+002,2.779879e+002
2.684810e+002,2.801265e+002
2.694452e+002,2.817357e+002
2.704094e+002,2.820560e+002
2.713737e+002,2.809969e+002
2.723379e+002,2.810180e+002
2.733021e+002,2.828202e+002
2.742664e+002,2.844370e+002
2.752306e+002,2.854780e+002
2.761948e+002,2.858987e+002
2.771591e+002,2.857893e+002
2.781233e+002,2.845641e+002
2.790875e+002,2.836690e+002
2.800518e+002,2.843983e+002
2.810160e+002,2.872466e+002
2.819802e+002,2.907737e+002
2.829445e+002,2.900169e+002
2.839087e+002,2.864323e+002
2.848729e+002,2.835153e+002
2.858372e+002,2.841289e+002
2.868014e+002,2.895017e+002
2.877656e+002,2.925203e+002
2.887299e+002,2.920801e+002
2.896941e+002,2.901379e+002
2.906583e+002,2.880498e+002
2.916226e+002,2.857753e+002
2.925868e+002,2.850341e+002
2.935510e+002,2.866365e+002
2.945153e+002,2.891914e+002
2.954795e+002,2.914116e+002
2.964437e+002,2.923203e+002
2.974080e+002,2.923367e+002
2.983722e+002,2.926108e+002
2.993364e+002,2.931711e+002
3.003007e+002,2.937913e+002
3.012649e+002,2.940517e+002
3.022291e+002,2.938625e+002
3.031934e+002,2.947305e+002
3.041576e+002,2.970542e+002
3.051218e+002,2.999371e+002
3.060861e+002,3.017416e+002
3.070503e+002,3.009413e+002
3.080145e+002,2.998386e+002
3.089788e+002,2.989994e+002
3.099430e+002,2.984617e+002
3.109072e+002,2.980097e+002
3.118715e+002,2.971541e+002
3.128357e+002,2.973672e+002
3.137999e+002,2.986773e+002
3.147642e+002,3.005717e+002
3.157284e+002,3.026179e+002
3.166926e+002,3.052940e+002
3.176569e+002,3.081281e+002
3.186211e+002,3.091813e+002
3.195853e+002,3.083837e+002
3.205496e+002,3.067778e+002
3.215138e+002,3.071156e+002
3.224780e+002,3.102158e+002
3.234423e+002,3.124406e+002
3.244065e+002,3.135972e+002
3.253707e+002,3.137823e+002
3.263350e+002,3.131844e+002
3.272992e+002,3.107177e+002
3.282634e+002,3.090995e+002
3.292277e+002,3.088112e+002
3.301919e+002,3.096316e+002
3.311561e+002,3.107750e+002
3.321204e+002,3.120991e+002
3.330846e+002,3.127211e+002
3.340488e+002,3.117969e+002
3.350131e+002,3.094968e+002
3.359773e+002,3.066326e+002
3.369415e+002,3.049188e+002
3.379058e+002,3.045353e+002
3.388700e+002,3.055436e+002
3.398342e+002,3.082535e+002
3.407985e+002,3.123463e+002
3.417627e+002,3.155091e+002
3.427269e+002,3.164870e+002
3.436912e+002,3.169457e+002
3.446554e+002,3.172734e+002
3.456196e+002,3.176395e+002
3.465839e+002,3.180614e+002
3.475481e+002,3.184227e+002
3.485123e+002,3.191253e+002
3.494765e+002,3.201375e+002
3.504408e+002,3.212197e+002
3.514050e+002,3.219831e+002
3.523692e+002,3.222617e+002
3.533335e+002,3.224024e+002
3.542977e+002,3.224629e+002
3.552619e+002,3.225834e+002
3.562262e+002,3.229907e+002
3.571904e+002,3.242717e+002
3.581546e+002,3.262994e+002
3.591189e+002,3.279009e+002
3.600831e+002,3.283925e+002
3.610473e+002,3.277444e+002
3.620116e+002,3.274391e+002
3.629758e+002,3.289341e+002
3.639400e+002,3.300237e+002
3.649043e+002,3.298148e+002
3.658685e+002,3.283611e+002
3.668327e+002,3.268839e+002
3.677970e+002,3.264615e+002
3.687612e+002,3.266859e+002
3.697254e+002,3.277776e+002
3.706897e+002,3.294877e+002
3.716539e+002,3.310462e+002
3.726181e+002,3.298028e+002
3.735824e+002,3.264050e+002
3.745466e+002,3.241991e+002
3.755108e+002,3.244877e+002
3.764751e+002,3.271775e+002
3.774393e+002,3.295892e+002
3.784035e+002,3.317216e+002
3.793678e+002,3.331260e+002
3.803320e+002,3.337469e+002
3.812962e+002,3.337314e+002
3.822605e+002,3.334277e+002
3.832247e+002,3.315014e+002
3.841889e+002,3.303735e+002
3.851532e+002,3.311917e+002
3.861174e+002,3.337543e+002
3.870816e+002,3.368018e+002
3.880459e+002,3.394374e+002
3.890101e+002,3.410746e+002
3.899743e+002,3.404623e+002
3.909386e+002,3.376312e+002
3.919028e+002,3.337921e+002
3.928670e+002,3.326934e+002
3.938313e+002,3.348428e+002
3.947955e+002,3.362152e+002
3.957597e+002,3.360439e+002
3.967240e+002,3.347101e+002
3.976882e+002,3.336459e+002
3.986524e+002,3.327445e+002
3.996167e+002,3.328721e+002
4.005809e+002,3.342764e+002
4.015451e+002,3.364327e+002
4.025094e+002,3.383920e+002
4.034736e+002,3.399043e+002
4.044378e+002,3.415190e+002
4.054021e+002,3.430621e+002
4.063663e+002,3.444727e+002
4.073305e+002,3.458676e+002
4.082948e+002,3.477421e+002
4.092590e+002,3.499106e+002
4.102232e+002,3.508915e+002
4.111875e+002,3.503094e+002
4.121517e+002,3.486345e+002
4.131159e+002,3.471699e+002
4.140802e+002,3.476514e+002
4.150444e+002,3.476102e+002
4.160086e+002,3.453884e+002
4.169729e+002,3.426198e+002
4.179371e+002,3.421631e+002
4.189013e+002,3.463721e+002
4.198656e+002,3.493568e+002
4.208298e+002,3.487612e+002
4.217940e+002,3.461641e+002
4.227583e+002,3.437979e+002
4.237225e+002,3.437673e+002
4.246867e+002,3.462932e+002
4.256510e+002,3.500266e+002
4.266152e+002,3.543279e+002
4.275794e+002,3.575276e+002
4.285437e+002,3.576521e+002
4.295079e+002,3.533754e+002
4.304721e+002,3.506330e+002
4.314364e+002,3.498024e+002
4.324006e+002,3.506151e+002
4.333648e+002,3.530288e+002
4.343291e+002,3.577603e+002
4.352933e+002,3.606884e+002
4.362575e+002,3.609872e+002
4.372218e+002,3.599379e+002
4.381860e+002,3.581600e+002
4.391502e+002,3.558534e+002
4.401145e+002,3.540654e+002
4.410787e+002,3.545783e+002
4.420429e+002,3.566122e+002
4.430072e+002,3.590252e+002
4.439714e+002,3.608647e+002
4.449356e+002,3.618038e+002
4.458999e+002,3.623106e+002
4.468641e+002,3.624481e+002
4.478283e+002,3.630793e+002
4.487926e+002,3.654211e+002
4.497568e+002,3.701801e+002
4.507210e+002,3.735283e+002
4.516853e+002,3.731039e+002
4.526495e+002,3.718339e+002
4.536137e+002,3.710269e+002
4.545780e+002,3.710016e+002
4.555422e+002,3.708127e+002
4.565064e+002,3.697634e+002
4.574707e+002,3.686871e+002
4.584349e+002,3.673476e+002
4.593991e+002,3.657124e+002
4.603634e+002,3.640929e+002
4.613276e+002,3.640330e+002
4.622918e+002,3.654772e+002
4.632561e+002,3.661099e+002
4.642203e+002,3.652557e+002
4.651845e+002,3.634819e+002
4.661488e+002,3.627487e+002
4.671130e+002,3.643939e+002
4.680772e+002,3.648516e+002
4.690415e+002,3.633398e+002
4.700057e+002,3.610441e+002
4.709699e+002,3.601115e+002
4.719342e+002,3.623408e+002
4.728984e+002,3.643484e+002
4.738626e+002,3.647142e+002
4.748269e+002,3.636986e+002
4.757911e+002,3.616229e+002
4.767553e+002,3.586064e+002
4.777196e+002,3.559186e+002
4.786838e+002,3.561894e+002
4.796480e+002,3.586052e+002
4.806123e+002,3.607811e+002
4.815765e+002,3.603589e+002
4.825407e+002,3.568502e+002
4.835050e+002,3.550681e+002
4.844692e+002,3.559675e+002
4.854334e+002,3.573963e+002
4.863977e+002,3.575618e+002
4.873619e+002,3.556227e+002
4.883261e+002,3.529926e+002
4.892904e+002,3.507433e+002
4.902546e+002,3.495424e+002
4.912188e+002,3.497353e+002
4.921831e+002,3.510786e+002
4.931473e+002,3.525189e+002
4.941115e+002,3.526746e+002
4.950758e+002,3.521906e+002
4.960400e+002,3.514656e+002
4.970042e+002,3.508008e+002
4.979685e+002,3.504817e+002
4.989327e+002,3.511002e+002
4.998969e+002,3.525767e+002
5.008612e+002,3.531811e+002
5.018254e+002,3.518702e+002
5.027896e+002,3.493360e+002
5.037539e+002,3.480153e+002
5.047181e+002,3.510940e+002
5.056823e+002,3.530464e+002
5.066466e+002,3.513864e+002
5.076108e+002,3.480283e+002
5.085750e+002,3.459533e+002
5.095393e+002,3.473708e+002
5.105035e+002,3.499029e+002
5.114677e+002,3.513660e+002
5.124320e+002,3.523240e+002
5.133962e+002,3.533605e+002
5.143605e+002,3.548331e+002
5.153247e+002,3.563824e+002
5.162889e+002,3.575596e+002
5.172532e+002,3.585168e+002
5.182174e+002,3.599249e+002
5.191816e+002,3.620455e+002
5.201459e+002,3.646729e+002
5.211101e+002,3.681991e+002
5.220743e+002,3.737266e+002
5.230386e+002,3.785336e+002
5.240028e+002,3.817979e+002
5.249670e+002,3.838073e+002
5.259313e+002,3.858769e+002
5.268955e+002,3.869581e+002
5.278597e+002,3.881711e+002
5.288240e+002,3.912089e+002
5.297882e+002,3.961849e+002
5.307524e+002,4.020558e+002
5.317167e+002,4.068107e+002
5.326809e+002,4.110529e+002
5.336451e+002,4.163472e+002
5.346094e+002,4.224278e+002
5.355736e+002,4.282261e+002
5.365378e+002,4.323951e+002
5.375021e+002,4.346248e+002
5.384663e+002,4.379614e+002
5.394305e+002,4.427854e+002
5.403948e+002,4.483098e+002
5.413590e+002,4.538311e+002
5.423232e+002,4.588960e+002
5.432875e+002,4.627739e+002
5.442517e+002,4.657500e+002
5.452159e+002,4.690043e+002
5.461802e+002,4.731550e+002
5.471444e+002,4.779952e+002
5.481086e+002,4.821934e+002
5.490729e+002,4.827131e+002
5.500371e+002,4.811163e+002
5.510013e+002,4.803099e+002
5.519656e+002,4.814457e+002
5.529298e+002,4.842700e+002
5.538940e+002,4.871267e+002
5.548583e+002,4.893926e+002
5.558225e+002,4.902552e+002
5.567867e+002,4.895678e+002
5.577510e+002,4.879155e+002
5.587152e+002,4.863058e+002
5.596794e+002,4.857732e+002
5.606437e+002,4.853716e+002
5.616079e+002,4.842382e+002
5.625721e+002,4.822717e+002
5.635364e+002,4.791019e+002
5.645006e+002,4.743481e+002
5.654648e+002,4.684526e+002
5.664291e+002,4.653187e+002
5.673933e+002,4.656570e+002
5.683575e+002,4.667786e+002
5.693218e+002,4.659453e+002
5.702860e+002,4.618597e+002
5.712502e+002,4.586378e+002
5.722145e+002,4.587746e+002
5.731787e+002,4.573285e+002
5.741429e+002,4.520601e+002
5.751072e+002,4.441824e+002
5.760714e+002,4.384758e+002
5.770356e+002,4.398875e+002
5.779999e+002,4.420295e+002
5.789641e+002,4.403749e+002
5.799283e+002,4.355856e+002
5.808926e+002,4.304941e+002
5.818568e+002,4.284808e+002
5.828210e+002,4.287713e+002
5.837853e+002,4.269156e+002
5.847495e+002,4.231909e+002
5.857137e+002,4.192079e+002
5.866780e+002,4.164860e+002
5.876422e+002,4.153855e+002
5.886064e+002,4.139599e+002
5.895707e+002,4.122802e+002
5.905349e+002,4.105643e+002
5.914991e+002,4.086639e+002
5.924634e+002,4.063948e+002
5.934276e+002,4.038093e+002
5.943918e+002,4.011462e+002
5.953560e+002,3.986423e+002
5.963203e+002,3.964932e+002
5.972845e+002,3.943379e+002
5.982487e+002,3.914054e+002
5.992130e+002,3.867399e+002
6.001772e+002,3.814902e+002
6.011414e+002,3.785987e+002
6.021057e+002,3.774977e+002
6.030699e+002,3.761208e+002
6.040341e+002,3.723594e+002
6.049984e+002,3.657285e+002
6.059626e+002,3.596767e+002
6.069268e+002,3.546204e+002
6.078911e+002,3.509857e+002
6.088553e+002,3.490452e+002
6.098195e+002,3.482976e+002
6.107838e+002,3.466976e+002
6.117480e+002,3.427949e+002
6.127122e+002,3.387493e+002
6.136765e+002,3.352422e+002
6.146407e+002,3.321338e+002
6.156049e+002,3.288921e+002
6.165692e+002,3.251480e+002
6.175334e+002,3.210898e+002
6.184976e+002,3.167933e+002
6.194619e+002,3.122861e+002
6.204261e+002,3.085465e+002
6.213903e+002,3.068596e+002
6.223546e+002,3.079927e+002
6.233188e+002,3.081089e+002
6.242830e+002,3.074103e+002
6.252473e+002,3.055737e+002
6.262115e+002,3.023448e+002
6.271757e+002,2.978393e+002
6.281400e+002,2.928657e+002
6.291042e+002,2.863583e+002
6.300684e+002,2.808470e+002
6.310327e+002,2.786917e+002
6.319969e+002,2.794016e+002
6.329611e+002,2.803950e+002
6.339254e+002,2.779921e+002
6.348896e+002,2.718461e+002
6.358538e+002,2.668870e+002
6.368181e+002,2.635379e+002
6.377823e+002,2.611813e+002
6.387465e+002,2.589477e+002
6.397108e+002,2.565068e+002
6.406750e+002,2.557306e+002
6.416392e+002,2.575666e+002
6.426035e+002,2.588435e+002
6.435677e+002,2.583531e+002
6.445319e+002,2.560818e+002
6.454962e+002,2.526754e+002
6.464604e+002,2.471554e+002
6.474246e+002,2.419346e+002
6.483889e+002,2.388412e+002
6.493531e+002,2.372986e+002
6.503173e+002,2.355163e+002
6.512816e+002,2.314455e+002
6.522458e+002,2.254349e+002
6.532100e+002,2.218909e+002
6.541743e+002,2.216870e+002
6.551385e+002,2.219865e+002
6.561027e+002,2.201348e+002
6.570670e+002,2.154718e+002
6.580312e+002,2.113221e+002
6.589954e+002,2.067776e+002
6.599597e+002,2.031504e+002
6.609239e+002,2.025164e+002
6.618881e+002,2.041740e+002
6.628524e+002,2.047945e+002
6.638166e+002,2.008270e+002
6.647808e+002,1.959775e+002
6.657451e+002,1.931556e+002
6.667093e+002,1.920191e+002
6.676735e+002,1.921012e+002
6.686378e+002,1.931168e+002
6.696020e+002,1.948806e+002
6.705662e+002,1.920822e+002
6.715305e+002,1.833541e+002
6.724947e+002,1.752763e+002
6.734589e+002,1.719815e+002
6.744232e+002,1.733463e+002
6.753874e+002,1.740626e+002
6.763516e+002,1.721606e+002
6.773159e+002,1.704751e+002
6.782801e+002,1.696488e+002
6.792443e+002,1.689999e+002
6.802086e+002,1.674251e+002
6.811728e+002,1.641948e+002
6.821370e+002,1.601067e+002
6.831013e+002,1.563266e+002
6.840655e+002,1.532217e+002
6.850297e+002,1.512372e+002
6.859940e+002,1.505191e+002
6.869582e+002,1.506078e+002
6.879224e+002,1.494383e+002
6.888867e+002,1.461546e+002
6.898509e+002,1.431031e+002
6.908151e+002,1.415201e+002
6.917794e+002,1.407317e+002
6.927436e+002,1.386337e+002
6.937078e+002,1.331553e+002
6.946721e+002,1.292628e+002
6.956363e+002,1.293873e+002
6.966005e+002,1.312328e+002
6.975648e+002,1.326157e+002
6.985290e+002,1.323546e+002
6.994932e+002,1.307594e+002
7.004575e+002,1.282668e+002
7.014217e+002,1.255411e+002
7.023859e+002,1.236284e+002
7.033502e+002,1.229881e+002
7.043144e+002,1.229570e+002
7.052786e+002,1.216908e+002
7.062429e+002,1.175272e+002
7.072071e+002,1.143451e+002
7.081713e+002,1.130856e+002
7.091356e+002,1.125777e+002
7.100998e+002,1.115218e+002
7.110640e+002,1.094224e+002
7.120283e+002,1.078227e+002
7.129925e+002,1.086554e+002
7.139567e+002,1.094896e+002
7.149210e+002,1.088078e+002
7.158852e+002,1.066506e+002
7.168494e+002,1.041180e+002
7.178137e+002,1.025629e+002
7.187779e+002,1.020162e+002
7.197421e+002,1.012303e+002
7.207064e+002,1.000016e+002
7.216706e+002,9.860573e+001
7.226348e+002,9.723507e+001
7.235991e+002,9.588952e+001
7.245633e+002,9.607140e+001
7.255275e+002,9.832904e+001
7.264918e+002,1.003094e+002
7.274560e+002,1.022146e+002
7.284202e+002,1.037395e+002
7.293845e+002,1.037091e+002
7.303487e+002,1.003156e+002
7.313129e+002,9.669431e+001
7.322772e+002,9.567403e+001
7.332414e+002,9.616560e+001
7.342056e+002,9.658201e+001
7.351699e+002,9.595498e+001
7.361341e+002,9.470914e+001
7.370983e+002,9.407415e+001
7.380626e+002,9.350182e+001
7.390268e+002,9.306121e+001
7.399910e+002,9.327334e+001
7.409553e+002,9.412251e+001
7.419195e+002,9.504025e+001
7.428837e+002,9.581915e+001
7.438480e+002,9.567809e+001
7.448122e+002,9.460914e+001
7.457764e+002,9.361461e+001
7.467407e+002,9.312334e+001
7.477049e+002,9.335394e+001
7.486691e+002,9.486784e+001
7.496334e+002,9.926122e+001
7.505976e+002,1.039439e+002
7.515618e+002,1.062140e+002
7.525261e+002,1.058671e+002
7.534903e+002,1.042099e+002
7.544545e+002,1.030329e+002
7.554188e+002,1.027401e+002
7.563830e+002,1.036248e+002
7.573472e+002,1.051819e+002
7.583115e+002,1.067142e+002
7.592757e+002,1.085319e+002
7.602399e+002,1.109152e+002
7.612042e+002,1.130658e+002
7.621684e+002,1.135602e+002
7.631326e+002,1.136089e+002
7.640969e+002,1.138682e+002
7.650611e+002,1.142214e+002
7.660253e+002,1.145229e+002
7.669896e+002,1.148273e+002
7.679538e+002,1.153775e+002
7.689180e+002,1.148731e+002
7.698823e+002,1.129543e+002
7.708465e+002,1.126866e+002
7.718107e+002,1.167148e+002
7.727750e+002,1.235795e+002
7.737392e+002,1.262464e+002
7.747034e+002,1.205284e+002
7.756677e+002,1.167611e+002
7.766319e+002,1.155595e+002
7.775961e+002,1.158908e+002
7.785604e+002,1.173067e+002
7.795246e+002,1.197169e+002
7.804888e+002,1.219923e+002
7.814531e+002,1.233741e+002
7.824173e+002,1.240141e+002
7.833815e+002,1.238091e+002
7.843458e+002,1.230484e+002
7.853100e+002,1.222618e+002
7.862742e+002,1.219039e+002
7.872385e+002,1.216095e+002
7.882027e+002,1.205812e+002
7.891669e+002,1.184645e+002
7.901312e+002,1.162018e+002
7.910954e+002,1.147804e+002
7.920596e+002,1.144959e+002
7.930239e+002,1.145284e+002
7.939881e+002,1.145430e+002
7.949523e+002,1.144610e+002
7.959166e+002,1.137707e+002
7.968808e+002,1.129546e+002
7.978450e+002,1.127686e+002
7.988093e+002,1.136317e+002
7.997735e+002,1.149222e+002
8.007377e+002,1.160478e+002
8.017020e+002,1.167017e+002
8.026662e+002,1.157118e+002
8.036304e+002,1.126225e+002
8.045947e+002,1.086703e+002
8.055589e+002,1.064708e+002
8.065231e+002,1.074534e+002
8.074874e+002,1.065134e+002
8.084516e+002,1.019489e+002
8.094158e+002,9.748569e+001
8.103801e+002,9.616686e+001
8.113443e+002,9.812375e+001
8.123085e+002,9.997287e+001
8.132728e+002,9.872136e+001
8.142370e+002,9.669485e+001
8.152012e+002,9.544992e+001
8.161655e+002,9.433191e+001
8.171297e+002,9.251549e+001
8.180939e+002,8.972887e+001
8.190582e+002,8.667628e+001
8.200224e+002,8.354841e+001
8.209866e+002,7.971400e+001
8.219509e+002,7.727995e+001
8.229151e+002,7.743357e+001
8.238793e+002,7.901153e+001
8.248436e+002,7.959073e+001
8.258078e+002,7.883108e+001
8.267720e+002,7.806145e+001
8.277363e+002,7.771040e+001
8.287005e+002,7.696553e+001
8.296647e+002,7.542479e+001
8.306290e+002,7.326363e+001
8.315932e+002,7.105051e+001
8.325574e+002,6.908879e+001
8.335217e+002,6.736996e+001
8.344859e+002,6.575383e+001
8.354501e+002,6.407624e+001
8.364144e+002,6.235492e+001
8.373786e+002,6.077039e+001
8.383428e+002,5.948350e+001
8.393071e+002,5.810453e+001
8.402713e+002,5.618065e+001
8.412355e+002,5.480776e+001
8.421998e+002,5.408962e+001
8.431640e+002,5.384977e+001
8.441282e+002,5.394460e+001
8.450925e+002,5.439864e+001
8.460567e+002,5.499704e+001
8.470209e+002,5.632326e+001
8.479852e+002,5.714431e+001
8.489494e+002,5.603471e+001
8.499136e+002,5.320547e+001
8.508779e+002,5.033945e+001
8.518421e+002,4.960816e+001
8.528063e+002,5.091424e+001
8.537706e+002,5.093177e+001
8.547348e+002,4.926597e+001
8.556990e+002,4.773495e+001
8.566633e+002,4.748857e+001
8.576275e+002,4.823018e+001
8.585917e+002,4.838014e+001
8.595560e+002,4.757071e+001
8.605202e+002,4.691023e+001
8.614844e+002,4.677113e+001
8.624487e+002,4.702756e+001
8.634129e+002,4.746529e+001
8.643771e+002,4.774727e+001
8.653414e+002,4.729204e+001
8.663056e+002,4.514676e+001
8.672698e+002,4.302579e+001
8.682341e+002,4.349885e+001
8.691983e+002,4.657946e+001
8.701625e+002,5.003431e+001
8.711268e+002,5.127128e+001
8.720910e+002,4.972385e+001
8.730552e+002,4.820341e+001
8.740195e+002,4.817422e+001
8.749837e+002,4.870253e+001
8.759479e+002,4.901554e+001
8.769122e+002,4.907149e+001
8.778764e+002,4.932759e+001
8.788406e+002,5.010600e+001
8.798049e+002,4.997860e+001
8.807691e+002,4.814864e+001
8.817333e+002,4.570928e+001
8.826976e+002,4.287577e+001
8.836618e+002,4.001598e+001
8.846260e+002,3.833369e+001
8.855903e+002,3.998236e+001
8.865545e+002,4.557551e+001
8.875187e+002,4.816026e+001
8.884830e+002,4.602390e+001
8.894472e+002,4.361968e+001
8.904114e+002,4.350235e+001
8.913757e+002,4.540792e+001
8.923399e+002,4.737914e+001
8.933041e+002,4.856582e+001
8.942684e+002,4.947933e+001
8.952326e+002,5.092247e+001
8.961968e+002,5.229080e+001
8.971611e+002,5.291019e+001
8.981253e+002,5.267083e+001
8.990895e+002,5.217998e+001
9.000538e+002,5.203515e+001
9.010180e+002,5.206826e+001
9.019822e+002,5.222706e+001
9.029465e+002,5.256997e+001
9.039107e+002,5.314502e+001
9.048749e+002,5.386449e+001
9.058392e+002,5.459931e+001
9.068034e+002,5.566019e+001
9.077676e+002,5.818821e+001
9.087319e+002,6.003942e+001
9.096961e+002,6.022220e+001
9.106603e+002,6.004178e+001
9.116246e+002,6.119213e+001
9.125888e+002,6.416960e+001
9.135530e+002,6.716563e+001
9.145173e+002,6.729610e+001
9.154815e+002,6.614484e+001
9.164457e+002,6.646429e+001
9.174100e+002,6.888309e+001
9.183742e+002,7.178512e+001
9.193384e+002,7.284647e+001
9.203027e+002,7.156947e+001
9.212669e+002,7.310419e+001
9.222311e+002,7.938765e+001
9.231954e+002,8.395550e+001
9.241596e+002,8.507452e+001
9.251238e+002,8.448262e+001
9.260881e+002,8.465251e+001
9.270523e+002,8.621074e+001
9.280165e+002,8.799049e+001
9.289808e+002,8.892188e+001
9.299450e+002,8.994812e+001
9.309092e+002,9.180899e+001
9.318735e+002,9.444856e+001
9.328377e+002,9.738369e+001
9.338019e+002,1.001910e+002
9.347662e+002,1.028301e+002
9.357304e+002,1.044841e+002
9.366946e+002,1.051942e+002
9.376589e+002,1.064795e+002
9.386231e+002,1.086730e+002
9.395873e+002,1.111822e+002
9.405516e+002,1.134410e+002
9.415158e+002,1.160047e+002
9.424800e+002,1.174587e+002
9.434443e+002,1.154572e+002
9.444085e+002,1.138640e+002
9.453727e+002,1.162186e+002
9.463370e+002,1.219162e+002
9.473012e+002,1.271886e+002
9.482654e+002,1.283059e+002
9.492297e+002,1.258761e+002
9.501939e+002,1.243791e+002
9.511581e+002,1.244229e+002
9.521224e+002,1.244863e+002
9.530866e+002,1.232221e+002
9.540508e+002,1.213061e+002
9.550151e+002,1.208157e+002
9.559793e+002,1.220310e+002
9.569435e+002,1.229308e+002
9.579078e+002,1.246187e+002
9.588720e+002,1.263560e+002
9.598362e+002,1.269461e+002
9.608005e+002,1.266267e+002
9.617647e+002,1.267890e+002
9.627289e+002,1.286064e+002
9.636932e+002,1.310019e+002
9.646574e+002,1.318857e+002
9.656216e+002,1.313421e+002
9.665859e+002,1.298103e+002
9.675501e+002,1.274621e+002
9.685143e+002,1.254238e+002
9.694786e+002,1.258073e+002
9.704428e+002,1.298152e+002
9.714070e+002,1.334698e+002
9.723713e+002,1.351721e+002
9.733355e+002,1.365573e+002
9.742997e+002,1.388448e+002
9.752640e+002,1.422509e+002
9.762282e+002,1.464378e+002
9.771924e+002,1.510414e+002
9.781567e+002,1.549845e+002
9.791209e+002,1.570175e+002
9.800851e+002,1.580949e+002
9.810494e+002,1.593764e+002
9.820136e+002,1.613671e+002
9.829778e+002,1.640772e+002
9.839421e+002,1.673618e+002
9.849063e+002,1.710996e+002
9.858705e+002,1.721889e+002
9.868348e+002,1.693987e+002
9.877990e+002,1.679341e+002
9.887632e+002,1.692728e+002
9.897275e+002,1.725020e+002
9.906917e+002,1.765017e+002
9.916559e+002,1.809234e+002
9.926202e+002,1.829831e+002
9.935844e+002,1.793663e+002
9.945486e+002,1.745958e+002
9.955129e+002,1.722245e+002
9.964771e+002,1.725178e+002
9.974413e+002,1.736046e+002
9.984056e+002,1.734871e+002
9.993698e+002,1.720910e+002
1.000334e+003,1.718840e+002
1.001298e+003,1.742303e+002
1.002263e+003,1.757412e+002
1.003227e+003,1.749235e+002
1.004191e+003,1.736110e+002
1.005155e+003,1.743223e+002
1.006119e+003,1.773812e+002
1.007084e+003,1.793898e+002
1.008048e+003,1.772239e+002
1.009012e+003,1.757269e+002
1.009976e+003,1.779259e+002
1.010941e+003,1.822111e+002
1.011905e+003,1.854948e+002
1.012869e+003,1.861111e+002
1.013833e+003,1.853252e+002
1.014798e+003,1.864117e+002
1.015762e+003,1.908001e+002
1.016726e+003,1.943779e+002
1.017690e+003,1.958799e+002
1.018654e+003,1.975250e+002
1.019619e+003,2.008876e+002
1.020583e+003,2.055615e+002
1.021547e+003,2.099751e+002
1.022511e+003,2.139815e+002
1.023476e+003,2.165831e+002
1.024440e+003,2.169231e+002
1.025404e+003,2.169400e+002
1.026368e+003,2.187119e+002
1.027333e+003,2.225106e+002
1.028297e+003,2.266277e+002
1.029261e+003,2.287615e+002
1.030225e+003,2.288897e+002
1.031190e+003,2.308645e+002
1.032154e+003,2.357823e+002
1.033118e+003,2.413906e+002
1.034082e+003,2.465117e+002
1.035047e+003,2.511821e+002
1.036011e+003,2.559947e+002
1.036975e+003,2.612366e+002
1.037939e+003,2.649005e+002
1.038903e+003,2.655013e+002
1.039868e+003,2.666525e+002
1.040832e+003,2.701863e+002
1.041796e+003,2.753773e+002
1.042760e+003,2.806530e+002
1.043725e+003,2.850583e+002
1.044689e+003,2.882800e+002
1.045653e+003,2.891562e+002
1.046617e+003,2.878347e+002
1.047582e+003,2.886467e+002
1.048546e+003,2.936080e+002
1.049510e+003,3.002542e+002
1.050474e+003,3.055516e+002
1.051438e+003,3.091777e+002
1.052403e+003,3.136911e+002
1.053367e+003,3.201085e+002
1.054331e+003,3.261970e+002
1.055295e+003,3.323317e+002
1.056260e+003,3.377070e+002
1.057224e+003,3.408820e+002
1.058188e+003,3.421249e+002
1.059152e+003,3.438582e+002
1.060117e+003,3.486462e+002
1.061081e+003,3.557842e+002
1.062045e+003,3.622259e+002
1.063009e+003,3.675110e+002
1.063974e+003,3.714756e+002
1.064938e+003,3.738390e+002
1.065902e+003,3.760775e+002
1.066866e+003,3.808353e+002
1.067830e+003,3.886116e+002
1.068795e+003,3.947055e+002
1.069759e+003,3.971334e+002
1.070723e+003,3.994888e+002
1.071687e+003,4.036888e+002
1.072652e+003,4.094744e+002
1.073616e+003,4.155361e+002
1.074580e+003,4.208412e+002
1.075544e+003,4.254651e+002
1.076509e+003,4.303737e+002
1.077473e+003,4.356476e+002
1.078437e+003,4.403817e+002
1.079401e+003,4.448409e+002
1.080365e+003,4.482373e+002
1.081330e+003,4.484250e+002
1.082294e+003,4.461222e+002
1.083258e+003,4.475963e+002
1.084222e+003,4.559111e+002
1.085187e+003,4.632177e+002
1.086151e+003,4.676856e+002
1.087115e+003,4.708450e+002
1.088079e+003,4.734086e+002
1.089043e+003,4.755416e+002
1.090008e+003,4.771985e+002
1.090972e+003,4.783973e+002
1.091936e+003,4.791432e+002
1.092900e+003,4.792252e+002
1.093865e+003,4.786936e+002
1.094829e+003,4.780806e+002
1.095793e+003,4.777879e+002
1.096757e+003,4.777550e+002
1.097722e+003,4.775721e+002
1.098686e+003,4.767740e+002
1.099650e+003,4.751309e+002
1.100614e+003,4.727985e+002
1.101578e+003,4.712754e+002
1.102543e+003,4.715016e+002
1.103507e+003,4.718644e+002
1.104471e+003,4.706437e+002
1.105435e+003,4.670926e+002
1.106400e+003,4.614612e+002
1.107364e+003,4.544280e+002
1.108328e+003,4.469736e+002
1.109292e+003,4.408199e+002
1.110257e+003,4.361172e+002
1.111221e+003,4.320182e+002
1.112185e+003,4.276725e+002
1.113149e+003,4.226945e+002
1.114114e+003,4.171981e+002
1.115078e+003,4.115642e+002
1.116042e+003,4.056671e+002
1.117006e+003,3.995624e+002
1.117970e+003,3.934158e+002
1.118935e+003,3.864284e+002
1.119899e+003,3.791409e+002
1.120863e+003,3.729763e+002
1.121827e+003,3.683452e+002
1.122792e+003,3.636720e+002
1.123756e+003,3.564188e+002
1.124720e+003,3.466019e+002
1.125684e+003,3.398763e+002
1.126649e+003,3.378649e+002
1.127613e+003,3.350404e+002
1.128577e+003,3.279462e+002
1.129541e+003,3.191888e+002
1.130505e+003,3.133401e+002
1.131470e+003,3.108768e+002
1.132434e+003,3.071713e+002
1.133398e+003,3.000508e+002
1.134362e+003,2.929324e+002
1.135327e+003,2.866802e+002
1.136291e+003,2.812101e+002
1.137255e+003,2.767393e+002
1.138219e+003,2.732324e+002
1.139184e+003,2.697546e+002
1.140148e+003,2.646698e+002
1.141112e+003,2.576193e+002
1.142076e+003,2.530163e+002
1.143041e+003,2.528874e+002
1.144005e+003,2.519037e+002
1.144969e+003,2.477459e+002
1.145933e+003,2.420200e+002
1.146897e+003,2.369161e+002
1.147862e+003,2.323711e+002
1.148826e+003,2.277493e+002
1.149790e+003,2.232988e+002
1.150754e+003,2.187737e+002
1.151719e+003,2.140632e+002
1.152683e+003,2.092091e+002
1.153647e+003,2.037684e+002
1.154611e+003,1.978705e+002
1.155576e+003,1.928958e+002
1.156540e+003,1.907957e+002
1.157504e+003,1.912659e+002
1.158468e+003,1.891915e+002
1.159432e+003,1.833214e+002
1.160397e+003,1.785438e+002
1.161361e+003,1.775323e+002
1.162325e+003,1.777056e+002
1.163289e+003,1.755715e+002
1.164254e+003,1.705074e+002
1.165218e+003,1.643825e+002
1.166182e+003,1.572015e+002
1.167146e+003,1.512654e+002
1.168111e+003,1.492594e+002
1.169075e+003,1.490205e+002
1.170039e+003,1.468039e+002
1.171003e+003,1.415495e+002
1.171968e+003,1.355264e+002
1.172932e+003,1.318751e+002
1.173896e+003,1.308388e+002
1.174860e+003,1.297110e+002
1.175824e+003,1.290814e+002
1.176789e+003,1.267705e+002
1.177753e+003,1.206190e+002
1.178717e+003,1.144669e+002
1.179681e+003,1.124522e+002
1.180646e+003,1.140650e+002
1.181610e+003,1.145526e+002
1.182574e+003,1.111684e+002
1.183538e+003,1.062206e+002
1.184503e+003,1.027199e+002
1.185467e+003,9.997656e+001
1.186431e+003,9.649896e+001
1.187395e+003,9.180527e+001
1.188359e+003,8.708675e+001
1.189324e+003,8.395387e+001
1.190288e+003,8.259410e+001
1.191252e+003,8.155991e+001
1.192216e+003,8.103519e+001
1.193181e+003,7.997083e+001
1.194145e+003,7.766718e+001
1.195109e+003,7.482094e+001
1.196073e+003,7.221153e+001
1.197038e+003,6.999143e+001
1.198002e+003,6.783092e+001
1.198966e+003,6.544870e+001
1.199930e+003,6.292221e+001
1.200895e+003,6.032518e+001
1.201859e+003,5.780588e+001
1.202823e+003,5.578464e+001
1.203787e+003,5.418517e+001
1.204751e+003,5.305064e+001
1.205716e+003,5.291362e+001
1.206680e+003,5.330274e+001
1.207644e+003,5.264483e+001
1.208608e+003,5.062659e+001
1.209573e+003,4.827207e+001
1.210537e+003,4.593789e+001
1.211501e+003,4.398423e+001
1.212465e+003,4.238191e+001
1.213430e+003,4.134333e+001
1.214394e+003,4.110958e+001
1.215358e+003,4.126575e+001
1.216322e+003,4.063989e+001
1.217286e+003,3.820381e+001
1.218251e+003,3.446997e+001
1.219215e+003,3.199243e+001
1.220179e+003,3.112386e+001
1.221143e+003,3.091205e+001
1.222108e+003,3.183540e+001
1.223072e+003,3.272904e+001
1.224036e+003,3.162826e+001
1.225000e+003,2.848081e+001
1.225965e+003,2.615516e+001
1.226929e+003,2.621313e+001
1.227893e+003,2.559541e+001
1.228857e+003,2.242375e+001
1.229822e+003,1.927659e+001
1.230786e+003,1.814959e+001
1.231750e+003,1.895627e+001
1.232714e+003,2.066427e+001
1.233678e+003,2.254644e+001
1.234643e+003,2.425272e+001
1.235607e+003,2.467850e+001
1.236571e+003,2.387286e+001
1.237535e+003,2.306895e+001
1.238500e+003,2.213548e+001
1.239464e+003,2.074446e+001
1.240428e+003,1.785156e+001
1.241392e+003,1.437141e+001
1.242357e+003,1.229075e+001
1.243321e+003,1.240262e+001
1.244285e+003,1.354136e+001
1.245249e+003,1.490505e+001
1.246214e+003,1.625026e+001
1.247178e+003,1.669235e+001
1.248142e+003,1.616419e+001
1.249106e+003,1.598804e+001
1.250070e+003,1.712735e+001
1.251035e+003,1.840235e+001
1.251999e+003,1.749274e+001
1.252963e+003,1.418478e+001
1.253927e+003,1.234828e+001
1.254892e+003,1.361709e+001
1.255856e+003,1.454338e+001
1.256820e+003,1.344700e+001
1.257784e+003,1.227458e+001
1.258749e+003,1.304671e+001
1.259713e+003,1.517512e+001
1.260677e+003,1.632845e+001
1.261641e+003,1.513464e+001
1.262605e+003,1.296374e+001
1.263570e+003,1.238697e+001
1.264534e+003,1.354369e+001
1.265498e+003,1.357976e+001
1.266462e+003,1.204743e+001
1.267427e+003,1.065868e+001
1.268391e+003,1.015020e+001
1.269355e+003,9.717297e+000
1.270319e+003,8.037411e+000
1.271284e+003,5.191654e+000
1.272248e+003,3.862457e+000
1.273212e+003,6.469807e+000
1.274176e+003,9.831753e+000
1.275141e+003,1.053583e+001
1.276105e+003,9.466972e+000
1.277069e+003,8.622379e+000
1.278033e+003,8.694313e+000
1.278997e+003,8.983189e+000
1.279962e+003,8.816338e+000
1.280926e+003,8.735260e+000
1.281890e+003,1.000797e+001
1.282854e+003,1.306371e+001
1.283819e+003,1.350589e+001
1.284783e+003,1.000516e+001
1.285747e+003,6.659725e+000
1.286711e+003,5.815838e+000
1.287676e+003,6.770863e+000
1.288640e+003,8.017776e+000
1.289604e+003,8.871403e+000
1.290568e+003,9.057755e+000
1.291532e+003,8.154770e+000
1.292497e+003,6.818398e+000
1.293461e+003,6.822624e+000
1.294425e+003,8.103848e+000
1.295389e+003,9.349449e+000
1.296354e+003,1.011546e+001
1.297318e+003,1.029781e+001
1.298282e+003,9.407669e+000
1.299246e+003,7.647926e+000
1.300211e+003,7.008686e+000
1.301175e+003,8.530602e+000
1.302139e+003,1.018987e+001
1.303103e+003,1.095541e+001
1.304068e+003,1.091947e+001
1.305032e+003,1.001020e+001
1.305996e+003,8.684689e+000
1.306960e+003,7.640690e+000
1.307924e+003,7.296425e+000
1.308889e+003,7.493561e+000
1.309853e+003,7.597214e+000
1.310817e+003,6.987690e+000
1.311781e+003,6.675125e+000
1.312746e+003,8.376801e+000
1.313710e+003,1.030128e+001
1.314674e+003,1.245478e+001
1.315638e+003,1.404337e+001
1.316603e+003,1.370765e+001
1.317567e+003,1.175050e+001
1.318531e+003,1.020152e+001
1.319495e+003,1.038949e+001
1.320459e+003,1.136417e+001
1.321424e+003,1.149103e+001
1.322388e+003,1.083623e+001
1.323352e+003,1.026178e+001
1.324316e+003,9.844883e+000
1.325281e+003,9.482571e+000
1.326245e+003,9.152931e+000
1.327209e+003,8.726879e+000
1.328173e+003,8.015327e+000
1.329138e+003,7.011684e+000
1.330102e+003,5.876350e+000
1.331066e+003,4.678780e+000
1.332030e+003,4.045132e+000
1.332995e+003,3.176582e+000
1.333959e+003,2.942947e+000
1.334923e+003,4.595985e+000
1.335887e+003,7.216454e+000
1.336851e+003,9.412933e+000
1.337816e+003,1.063433e+001
1.338780e+003,1.071636e+001
1.339744e+003,8.843262e+000
1.340708e+003,4.896759e+000
1.341673e+003,3.236778e+000
1.342637e+003,5.473427e+000
1.343601e+003,6.559521e+000
1.344565e+003,5.065075e+000
1.345530e+003,3.777370e+000
1.346494e+003,4.835030e+000
1.347458e+003,7.546150e+000
1.348422e+003,1.020932e+001
1.349386e+003,1.224330e+001
1.350351e+003,1.247688e+001
1.351315e+003,9.237713e+000
1.352279e+003,5.206203e+000
1.353243e+003,4.304600e+000
1.354208e+003,5.990051e+000
1.355172e+003,7.755058e+000
1.356136e+003,8.488037e+000
1.357100e+003,8.443333e+000
1.358065e+003,8.023586e+000
1.359029e+003,7.448956e+000
1.359993e+003,7.398026e+000
1.360957e+003,8.517590e+000
1.361922e+003,8.998081e+000
1.362886e+003,7.082836e+000
1.363850e+003,5.679821e+000
1.364814e+003,6.284031e+000
1.365778e+003,7.978897e+000
1.366743e+003,9.884296e+000
1.367707e+003,1.151707e+001
1.368671e+003,1.219785e+001
1.369635e+003,1.127396e+001
1.370600e+003,9.546150e+000
1.371564e+003,9.316467e+000
1.372528e+003,1.106696e+001
1.373492e+003,1.188737e+001
1.374457e+003,1.013199e+001
1.375421e+003,9.026661e+000
1.376385e+003,1.171291e+001
1.377349e+003,1.542941e+001
1.378313e+003,1.540702e+001
1.379278e+003,1.129750e+001
1.380242e+003,7.638508e+000
1.381206e+003,7.464336e+000
1.382170e+003,8.895412e+000
1.383135e+003,8.616364e+000
1.384099e+003,7.407101e+000
1.385063e+003,7.689922e+000
1.386027e+003,9.528126e+000
1.386992e+003,1.035317e+001
1.387956e+003,8.412483e+000
1.388920e+003,5.475117e+000
1.389884e+003,4.593555e+000
1.390849e+003,5.893356e+000
1.391813e+003,6.767578e+000
1.392777e+003,5.500160e+000
1.393741e+003,3.923191e+000
1.394705e+003,3.897331e+000
1.395670e+003,4.929779e+000
1.396634e+003,6.285191e+000
1.397598e+003,7.260307e+000
1.398562e+003,7.276283e+000
1.399527e+003,6.362652e+000
1.400491e+003,5.343208e+000
1.401455e+003,5.163631e+000
1.402419e+003,5.805241e+000
1.403384e+003,6.256870e+000
1.404348e+003,5.558495e+000
1.405312e+003,4.718296e+000
1.406276e+003,5.281929e+000
1.407240e+003,6.518372e+000
1.408205e+003,6.998978e+000
1.409169e+003,6.614128e+000
1.410133e+003,5.952259e+000
1.411097e+003,5.272594e+000
1.412062e+003,4.574268e+000
1.413026e+003,4.248829e+000
1.413990e+003,4.665722e+000
1.414954e+003,5.281857e+000
1.415919e+003,5.675781e+000
1.416883e+003,5.849514e+000
1.417847e+003,5.111340e+000
1.418811e+003,4.462605e+000
1.419776e+003,4.934071e+000
1.420740e+003,5.823956e+000
1.421704e+003,5.845451e+000
1.422668e+003,5.066738e+000
1.423632e+003,4.850975e+000
1.424597e+003,5.752296e+000
1.425561e+003,7.063122e+000
1.426525e+003,8.568920e+000
1.427489e+003,9.946625e+000
1.428454e+003,1.022987e+001
1.429418e+003,9.488537e+000
1.430382e+003,9.422642e+000
1.431346e+003,1.103096e+001
1.432311e+003,1.246749e+001
1.433275e+003,1.134374e+001
1.434239e+003,8.439064e+000
1.435203e+003,6.808090e+000
1.436167e+003,6.228592e+000
1.437132e+003,6.110661e+000
1.438096e+003,6.309708e+000
1.439060e+003,6.539478e+000
1.440024e+003,7.638042e+000
1.440989e+003,9.131653e+000
1.441953e+003,9.299904e+000
1.442917e+003,7.696140e+000
1.443881e+003,6.237480e+000
1.444846e+003,7.118382e+000
1.445810e+003,9.862953e+000
1.446774e+003,1.148315e+001
1.447738e+003,1.111393e+001
1.448703e+003,1.054839e+001
1.449667e+003,9.068981e+000
1.450631e+003,8.635563e+000
1.451595e+003,1.139515e+001
1.452559e+003,1.459611e+001
1.453524e+003,1.547452e+001
1.454488e+003,1.412480e+001
1.455452e+003,1.181710e+001
1.456416e+003,9.189892e+000
1.457381e+003,6.792202e+000
1.458345e+003,5.337284e+000
1.459309e+003,4.699406e+000
1.460273e+003,5.025963e+000
1.461238e+003,7.420231e+000
1.462202e+003,9.264229e+000
1.463166e+003,9.473480e+000
1.464130e+003,9.719860e+000
1.465094e+003,1.077358e+001
1.466059e+003,1.173625e+001
1.467023e+003,1.166562e+001
1.467987e+003,1.081309e+001
1.468951e+003,1.022450e+001
1.469916e+003,1.065015e+001
1.470880e+003,1.188197e+001
1.471844e+003,1.268547e+001
1.472808e+003,1.261211e+001
1.473773e+003,1.292438e+001
1.474737e+003,1.422617e+001
1.475701e+003,1.462180e+001
1.476665e+003,1.228045e+001
1.477630e+003,9.922157e+000
1.478594e+003,1.113847e+001
1.479558e+003,1.473438e+001
1.480522e+003,1.614660e+001
1.481486e+003,1.455047e+001
1.482451e+003,1.329042e+001
1.483415e+003,1.431049e+001
1.484379e+003,1.571761e+001
1.485343e+003,1.593462e+001
1.486308e+003,1.558817e+001
1.487272e+003,1.562358e+001
1.488236e+003,1.616579e+001
1.489200e+003,1.683040e+001
1.490165e+003,1.727903e+001
1.491129e+003,1.736061e+001
1.492093e+003,1.687953e+001
1.493057e+003,1.593454e+001
1.494021e+003,1.621169e+001
1.494986e+003,1.897487e+001
1.495950e+003,2.120487e+001
1.496914e+003,2.095931e+001
1.497878e+003,2.026675e+001
1.498843e+003,2.058258e+001
1.499807e+003,2.168382e+001
1.500771e+003,2.292688e+001
1.501735e+003,2.403006e+001
1.502700e+003,2.501021e+001
1.503664e+003,2.583945e+001
1.504628e+003,2.625867e+001
1.505592e+003,2.583777e+001
1.506557e+003,2.462910e+001
1.507521e+003,2.409283e+001
1.508485e+003,2.372027e+001
1.509449e+003,2.407679e+001
1.510413e+003,2.603314e+001
1.511378e+003,2.776526e+001
1.512342e+003,2.783920e+001
1.513306e+003,2.696735e+001
1.514270e+003,2.668763e+001
1.515235e+003,2.733323e+001
1.516199e+003,2.790390e+001
1.517163e+003,2.758170e+001
1.518127e+003,2.645588e+001
1.519092e+003,2.421222e+001
1.520056e+003,1.978267e+001
1.521020e+003,1.767424e+001
1.521984e+003,2.009239e+001
1.522948e+003,2.140552e+001
1.523913e+003,1.925590e+001
1.524877e+003,1.686405e+001
1.525841e+003,1.705579e+001
1.526805e+003,1.913719e+001
1.527770e+003,2.109465e+001
1.528734e+003,2.194044e+001
1.529698e+003,2.123113e+001
1.530662e+003,1.869391e+001
1.531627e+003,1.553061e+001
1.532591e+003,1.442647e+001
1.533555e+003,1.571383e+001
1.534519e+003,1.607861e+001
1.535484e+003,1.460680e+001
1.536448e+003,1.373566e+001
1.537412e+003,1.531608e+001
1.538376e+003,1.667325e+001
1.539340e+003,1.452684e+001
1.540305e+003,1.016684e+001
1.541269e+003,7.126740e+000
1.542233e+003,6.207508e+000
1.543197e+003,7.030365e+000
1.544162e+003,1.024491e+001
1.545126e+003,1.384655e+001
1.546090e+003,1.378581e+001
1.547054e+003,1.150420e+001
1.548019e+003,1.026857e+001
1.548983e+003,9.056889e+000
1.549947e+003,9.010029e+000
1.550911e+003,1.269036e+001
1.551875e+003,1.665367e+001
1.552840e+003,1.672619e+001
1.553804e+003,1.419968e+001
1.554768e+003,1.261551e+001
1.555732e+003,1.231614e+001
1.556697e+003,1.250997e+001
1.557661e+003,1.352138e+001
1.558625e+003,1.419871e+001
1.559589e+003,1.159842e+001
1.560554e+003,7.521389e+000
1.561518e+003,7.007683e+000
1.562482e+003,1.093333e+001
1.563446e+003,1.408794e+001
1.564411e+003,1.336116e+001
1.565375e+003,1.138757e+001
1.566339e+003,1.135725e+001
1.567303e+003,1.248497e+001
1.568267e+003,1.162278e+001
1.569232e+003,8.017326e+000
1.570196e+003,6.004910e+000
1.571160e+003,8.494225e+000
1.572124e+003,1.162223e+001
1.573089e+003,1.157827e+001
1.574053e+003,1.018514e+001
1.575017e+003,9.723793e+000
1.575981e+003,1.018746e+001
1.576946e+003,1.064846e+001
1.577910e+003,1.036480e+001
1.578874e+003,9.770969e+000
1.579838e+003,1.029387e+001
1.580802e+003,1.189759e+001
1.581767e+003,1.241766e+001
1.582731e+003,1.105958e+001
1.583695e+003,1.013877e+001
1.584659e+003,1.095951e+001
1.585624e+003,1.133214e+001
1.586588e+003,9.655666e+000
1.587552e+003,7.732018e+000
1.588516e+003,6.448463e+000
1.589481e+003,5.957355e+000
1.590445e+003,7.424885e+000
1.591409e+003,1.140922e+001
1.592373e+003,1.482217e+001
1.593338e+003,1.411483e+001
1.594302e+003,1.136138e+001
1.595266e+003,1.189658e+001
1.596230e+003,1.573589e+001
1.597194e+003,1.810261e+001
1.598159e+003,1.757398e+001
1.599123e+003,1.598872e+001
1.600087e+003,1.337786e+001
1.601051e+003,1.134111e+001
1.602016e+003,1.174505e+001
1.602980e+003,1.332297e+001
1.603944e+003,1.384811e+001
1.604908e+003,1.314690e+001
1.605873e+003,1.185506e+001
1.606837e+003,9.996788e+000
1.607801e+003,8.194260e+000
1.608765e+003,6.754848e+000
1.609729e+003,5.425571e+000
1.610694e+003,6.147034e+000
1.611658e+003,9.934921e+000
1.612622e+003,1.339397e+001
1.613586e+003,1.593795e+001
1.614551e+003,1.767628e+001
1.615515e+003,1.762063e+001
1.616479e+003,1.644970e+001
1.617443e+003,1.546812e+001
1.618408e+003,1.483044e+001
1.619372e+003,1.395732e+001
1.620336e+003,1.265537e+001
1.621300e+003,1.173999e+001
1.622265e+003,1.201078e+001
1.623229e+003,1.306852e+001
1.624193e+003,1.404083e+001
1.625157e+003,1.483341e+001
1.626121e+003,1.522752e+001
1.627086e+003,1.540284e+001
1.628050e+003,1.499444e+001
1.629014e+003,1.251899e+001
1.629978e+003,9.984409e+000
1.630943e+003,1.003072e+001
1.631907e+003,1.166098e+001
1.632871e+003,1.223548e+001
1.633835e+003,1.138629e+001
1.634800e+003,1.080891e+001
1.635764e+003,1.187963e+001
1.636728e+003,1.350920e+001
1.637692e+003,1.309675e+001
1.638656e+003,1.098571e+001
1.639621e+003,1.147930e+001
1.640585e+003,1.552205e+001
1.641549e+003,1.766985e+001
1.642513e+003,1.552703e+001
1.643478e+003,1.324014e+001
1.644442e+003,1.390040e+001
1.645406e+003,1.585097e+001
1.646370e+003,1.752440e+001
1.647335e+003,1.855576e+001
1.648299e+003,1.841423e+001
1.649263e+003,1.683108e+001
1.650227e+003,1.483120e+001
1.651192e+003,1.273398e+001
1.652156e+003,1.114045e+001
1.653120e+003,1.144739e+001
1.654084e+003,1.349886e+001
1.655048e+003,1.546741e+001
1.656013e+003,1.689386e+001
1.656977e+003,1.842202e+001
1.657941e+003,2.079213e+001
1.658905e+003,2.213570e+001
1.659870e+003,1.947105e+001
1.660834e+003,1.516531e+001
1.661798e+003,1.384342e+001
1.662762e+003,1.575751e+001
1.663727e+003,1.758770e+001
1.664691e+003,1.841389e+001
1.665655e+003,1.818614e+001
1.666619e+003,1.622904e+001
1.667583e+003,1.374371e+001
1.668548e+003,1.274265e+001
1.669512e+003,1.299252e+001
1.670476e+003,1.343315e+001
1.671440e+003,1.416543e+001
1.672405e+003,1.515731e+001
1.673369e+003,1.603099e+001
1.674333e+003,1.669980e+001
1.675297e+003,1.697764e+001
1.676262e+003,1.699469e+001
1.677226e+003,1.802721e+001
1.678190e+003,2.072882e+001
1.679154e+003,2.259824e+001
1.680119e+003,2.246310e+001
1.681083e+003,2.134305e+001
1.682047e+003,1.963410e+001
1.683011e+003,1.790448e+001
1.683975e+003,1.721559e+001
1.684940e+003,1.767956e+001
1.685904e+003,1.849212e+001
1.686868e+003,1.920588e+001
1.687832e+003,1.960698e+001
1.688797e+003,1.907543e+001
1.689761e+003,1.795448e+001
1.690725e+003,1.855762e+001
1.691689e+003,2.163062e+001
1.692654e+003,2.322708e+001
1.693618e+003,2.294252e+001
1.694582e+003,2.287570e+001
1.695546e+003,2.251056e+001
1.696510e+003,2.211846e+001
1.697475e+003,2.290894e+001
1.698439e+003,2.415598e+001
1.699403e+003,2.417789e+001
1.700367e+003,2.309117e+001
1.701332e+003,2.243905e+001
1.702296e+003,2.292171e+001
1.703260e+003,2.389592e+001
1.704224e+003,2.448098e+001
1.705189e+003,2.483175e+001
1.706153e+003,2.665013e+001
1.707117e+003,3.058487e+001
1.708081e+003,3.239188e+001
1.709046e+003,3.185804e+001
1.710010e+003,3.255608e+001
1.710974e+003,3.463599e+001
1.711938e+003,3.666800e+001
1.712902e+003,3.859927e+001
1.713867e+003,3.923471e+001
1.714831e+003,3.672132e+001
1.715795e+003,3.232422e+001
1.716759e+003,2.976174e+001
1.717724e+003,3.060699e+001
1.718688e+003,3.261468e+001
1.719652e+003,3.309041e+001
1.720616e+003,3.234674e+001
1.721581e+003,3.260644e+001
1.722545e+003,3.442897e+001
1.723509e+003,3.512543e+001
1.724473e+003,3.367469e+001
1.725438e+003,3.322330e+001
1.726402e+003,3.508553e+001
1.727366e+003,3.693961e+001
1.728330e+003,3.818867e+001
1.729294e+003,3.870404e+001
1.730259e+003,3.774745e+001
1.731223e+003,3.584880e+001
1.732187e+003,3.509458e+001
1.733151e+003,3.622198e+001
1.734116e+003,3.724503e+001
1.735080e+003,3.644791e+001
1.736044e+003,3.481975e+001
1.737008e+003,3.386545e+001
1.737973e+003,3.326591e+001
1.738937e+003,3.217932e+001
1.739901e+003,3.033092e+001
1.740865e+003,2.932048e+001
1.741829e+003,3.045717e+001
1.742794e+003,3.178742e+001
1.743758e+003,3.099287e+001
1.744722e+003,2.963390e+001
1.745686e+003,3.040611e+001
1.746651e+003,3.296221e+001
1.747615e+003,3.414346e+001
1.748579e+003,3.255801e+001
1.749543e+003,3.092039e+001
1.750508e+003,3.078468e+001
1.751472e+003,3.184200e+001
1.752436e+003,3.463413e+001
1.753400e+003,3.755244e+001
1.754365e+003,3.676784e+001
1.755329e+003,3.240446e+001
1.756293e+003,2.902896e+001
1.757257e+003,2.871194e+001
1.758221e+003,2.865424e+001
1.759186e+003,2.583782e+001
1.760150e+003,2.234705e+001
1.761114e+003,2.321121e+001
1.762078e+003,2.836312e+001
1.763043e+003,3.192063e+001
1.764007e+003,3.349012e+001
1.764971e+003,3.374079e+001
1.765935e+003,3.302712e+001
1.766900e+003,3.247980e+001
1.767864e+003,3.277600e+001
1.768828e+003,3.294374e+001
1.769792e+003,3.126489e+001
1.770756e+003,2.858661e+001
1.771721e+003,2.748294e+001
1.772685e+003,2.833558e+001
1.773649e+003,2.867495e+001
1.774613e+003,2.683635e+001
1.775578e+003,2.457328e+001
1.776542e+003,2.484636e+001
1.777506e+003,2.746749e+001
1.778470e+003,2.923671e+001
1.779435e+003,2.968990e+001
1.780399e+003,2.987866e+001
1.781363e+003,3.029430e+001
1.782327e+003,3.109974e+001
1.783292e+003,3.283745e+001
1.784256e+003,3.329790e+001
1.785220e+003,3.000916e+001
1.786184e+003,2.534984e+001
1.787148e+003,2.327172e+001
1.788113e+003,2.408229e+001
1.789077e+003,2.547376e+001
1.790041e+003,2.643379e+001
1.791005e+003,2.655888e+001
1.791970e+003,2.543289e+001
1.792934e+003,2.381101e+001
1.793898e+003,2.275593e+001
1.794862e+003,2.210596e+001
1.795827e+003,2.085573e+001
1.796791e+003,1.859191e+001
1.797755e+003,1.837755e+001
1.798719e+003,2.265339e+001
1.799683e+003,2.723351e+001
1.800648e+003,2.701939e+001
1.801612e+003,2.353864e+001
1.802576e+003,2.207341e+001
1.803540e+003,2.254174e+001
1.804505e+003,2.250306e+001
1.805469e+003,2.250348e+001
1.806433e+003,2.284259e+001
1.807397e+003,2.221646e+001
1.808362e+003,2.223983e+001
1.809326e+003,2.527860e+001
1.810290e+003,2.901209e+001
1.811254e+003,3.026270e+001
1.812219e+003,2.925740e+001
1.813183e+003,2.758043e+001
1.814147e+003,2.571257e+001
1.815111e+003,2.387067e+001
1.816075e+003,2.279881e+001
1.817040e+003,2.233475e+001
1.818004e+003,2.091895e+001
1.818968e+003,1.864195e+001
1.819932e+003,1.891332e+001
1.820897e+003,2.186641e+001
1.821861e+003,2.358636e+001
1.822825e+003,2.388318e+001
1.823789e+003,2.328550e+001
1.824754e+003,2.169051e+001
1.825718e+003,2.102762e+001
1.826682e+003,2.239142e+001
1.827646e+003,2.447205e+001
1.828610e+003,2.574989e+001
1.829575e+003,2.625249e+001
1.830539e+003,2.674345e+001
1.831503e+003,2.750226e+001
1.832467e+003,2.814787e+001
1.833432e+003,2.819157e+001
1.834396e+003,2.787909e+001
1.835360e+003,2.830009e+001
1.836324e+003,2.934740e+001
1.837289e+003,2.883437e+001
1.838253e+003,2.626044e+001
1.839217e+003,2.473701e+001
1.840181e+003,2.576853e+001
1.841146e+003,2.708487e+001
1.842110e+003,2.701109e+001
1.843074e+003,2.635133e+001
1.844038e+003,2.599543e+001
1.845002e+003,2.581331e+001
1.845967e+003,2.610479e+001
1.846931e+003,2.724676e+001
1.847895e+003,2.851582e+001
1.848859e+003,2.973845e+001
1.849824e+003,2.955913e+001
1.850788e+003,2.682698e+001
1.851752e+003,2.447356e+001
1.852716e+003,2.552978e+001
1.853681e+003,2.861874e+001
1.854645e+003,3.120899e+001
1.855609e+003,3.240022e+001
1.856573e+003,3.185851e+001
1.857537e+003,2.937864e+001
1.858502e+003,2.685534e+001
1.859466e+003,2.715841e+001
1.860430e+003,2.916420e+001
1.861394e+003,2.889834e+001
1.862359e+003,2.645063e+001
1.863323e+003,2.504120e+001
1.864287e+003,2.480165e+001
1.865251e+003,2.489318e+001
1.866216e+003,2.574640e+001
1.867180e+003,2.677468e+001
1.868144e+003,2.706006e+001
1.869108e+003,2.642731e+001
1.870073e+003,2.503800e+001
1.871037e+003,2.336733e+001
1.872001e+003,2.244668e+001
1.872965e+003,2.250738e+001
1.873929e+003,2.308885e+001
1.874894e+003,2.234216e+001
1.875858e+003,2.347031e+001
1.876822e+003,3.178726e+001
1.877786e+003,3.851585e+001
1.878751e+003,3.531307e+001
1.879715e+003,2.795320e+001
1.880679e+003,2.361142e+001
1.881643e+003,2.294404e+001
1.882608e+003,2.481965e+001
1.883572e+003,2.827823e+001
1.884536e+003,3.067110e+001
1.885500e+003,2.975954e+001
1.886464e+003,2.708184e+001
1.887429e+003,2.552872e+001
1.888393e+003,2.540239e+001
1.889357e+003,2.617952e+001
1.890321e+003,2.769886e+001
1.891286e+003,2.878963e+001
1.892250e+003,2.888622e+001
1.893214e+003,2.926970e+001
1.894178e+003,3.161932e+001
1.895143e+003,3.374649e+001
1.896107e+003,3.287601e+001
1.897071e+003,3.026519e+001
1.898035e+003,2.805698e+001
1.899000e+003,2.575510e+001
1.899964e+003,2.487200e+001
1.900928e+003,2.807401e+001
1.901892e+003,3.050608e+001
1.902856e+003,2.890949e+001
1.903821e+003,2.709594e+001
1.904785e+003,2.679895e+001
1.905749e+003,2.669418e+001
1.906713e+003,2.618502e+001
1.907678e+003,2.587443e+001
1.908642e+003,2.658961e+001
1.909606e+003,2.775391e+001
1.910570e+003,2.721206e+001
1.911535e+003,2.431048e+001
1.912499e+003,2.206475e+001
1.913463e+003,2.328138e+001
1.914427e+003,2.580260e+001
1.915391e+003,2.589709e+001
1.916356e+003,2.450222e+001
1.917320e+003,2.492084e+001
1.918284e+003,2.747553e+001
1.919248e+003,2.988913e+001
1.920213e+003,3.094979e+001
1.921177e+003,3.120602e+001
1.922141e+003,3.146240e+001
1.923105e+003,3.120031e+001
1.924070e+003,2.928973e+001
1.925034e+003,2.652762e+001
1.925998e+003,2.536337e+001
1.926962e+003,2.583543e+001
1.927927e+003,2.569808e+001
1.928891e+003,2.462349e+001
1.929855e+003,2.375755e+001
1.930819e+003,2.231820e+001
1.931783e+003,2.187154e+001
1.932748e+003,2.497551e+001
1.933712e+003,2.834237e+001
1.934676e+003,2.810306e+001
1.935640e+003,2.593835e+001
1.936605e+003,2.541289e+001
1.937569e+003,2.645745e+001
1.938533e+003,2.628524e+001
1.939497e+003,2.419637e+001
1.940462e+003,2.281583e+001
1.941426e+003,2.403925e+001
1.942390e+003,2.613311e+001
1.943354e+003,2.657930e+001
1.944318e+003,2.543389e+001
1.945283e+003,2.449028e+001
1.946247e+003,2.440498e+001
1.947211e+003,2.371374e+001
1.948175e+003,2.201647e+001
1.949140e+003,2.119057e+001
1.950104e+003,2.177441e+001
1.951068e+003,2.270789e+001
1.952032e+003,2.359317e+001
1.952997e+003,2.423360e+001
1.953961e+003,2.331088e+001
1.954925e+003,2.057617e+001
1.955889e+003,1.834496e+001
1.956854e+003,1.631305e+001
1.957818e+003,1.567374e+001
1.958782e+003,1.734921e+001
1.959746e+003,1.981182e+001
1.960710e+003,2.266757e+001
1.961675e+003,2.452157e+001
1.962639e+003,2.467344e+001
1.963603e+003,2.409902e+001
1.964567e+003,2.392343e+001
1.965532e+003,2.402562e+001
1.966496e+003,2.356955e+001
1.967460e+003,2.229045e+001
1.968424e+003,2.084254e+001
1.969389e+003,1.883117e+001
1.970353e+003,1.778357e+001
1.971317e+003,2.018418e+001
1.972281e+003,2.346280e+001
1.973245e+003,2.466447e+001
1.974210e+003,2.404573e+001
1.975174e+003,2.127900e+001
1.976138e+003,1.731472e+001
1.977102e+003,1.619568e+001
1.978067e+003,1.913031e+001
1.979031e+003,2.197970e+001
1.979995e+003,2.125568e+001
1.980959e+003,1.889716e+001
1.981924e+003,1.837014e+001
1.982888e+003,1.970399e+001
1.983852e+003,2.188765e+001
1.984816e+003,2.476079e+001
1.985781e+003,2.593040e+001
1.986745e+003,2.545921e+001
1.987709e+003,2.404982e+001
1.988673e+003,2.050947e+001
1.989637e+003,1.840035e+001
1.990602e+003,2.130651e+001
1.991566e+003,2.555791e+001
1.992530e+003,2.615937e+001
1.993494e+003,2.421422e+001
1.994459e+003,2.310124e+001
1.995423e+003,2.252839e+001
1.996387e+003,2.192662e+001
1.997351e+003,2.028942e+001
1.998316e+003,1.954377e+001
1.999280e+003,2.185022e+001
2.000244e+003,2.409931e+001
2.001208e+003,2.435678e+001
2.002172e+003,2.388961e+001
2.003137e+003,2.372274e+001
2.004101e+003,2.344910e+001
2.005065e+003,2.219500e+001
2.006029e+003,2.033997e+001
2.006994e+003,1.972557e+001
2.007958e+003,2.086082e+001
2.008922e+003,2.219512e+001
2.009886e+003,2.378091e+001
2.010851e+003,2.532162e+001
2.011815e+003,2.561803e+001
2.012779e+003,2.528201e+001
2.013743e+003,2.560727e+001
2.014708e+003,2.616528e+001
2.015672e+003,2.554686e+001
2.016636e+003,2.401592e+001
2.017600e+003,2.359743e+001
2.018564e+003,2.495808e+001
2.019529e+003,2.644814e+001
2.020493e+003,2.682616e+001
2.021457e+003,2.684257e+001
2.022421e+003,2.738702e+001
2.023386e+003,2.800967e+001
2.024350e+003,2.766244e+001
2.025314e+003,2.644523e+001
2.026278e+003,2.491616e+001
2.027243e+003,2.318728e+001
2.028207e+003,2.274577e+001
2.029171e+003,2.428658e+001
2.030135e+003,2.528335e+001
2.031099e+003,2.366564e+001
2.032064e+003,2.115732e+001
2.033028e+003,2.032835e+001
2.033992e+003,2.033369e+001
2.034956e+003,1.922088e+001
2.035921e+003,1.775239e+001
2.036885e+003,1.717436e+001
2.037849e+003,1.706443e+001
2.038813e+003,1.891277e+001
2.039778e+003,2.322659e+001
2.040742e+003,2.573220e+001
2.041706e+003,2.527311e+001
2.042670e+003,2.403072e+001
2.043635e+003,2.317891e+001
2.044599e+003,2.264859e+001
2.045563e+003,2.218441e+001
2.046527e+003,2.199099e+001
2.047491e+003,2.295537e+001
2.048456e+003,2.611863e+001
2.049420e+003,2.755326e+001
2.050384e+003,2.281629e+001
2.051348e+003,1.882678e+001
2.052313e+003,2.051295e+001
2.053277e+003,2.338023e+001
2.054241e+003,2.433194e+001
2.055205e+003,2.418352e+001
2.056170e+003,2.299343e+001
2.057134e+003,2.117024e+001
2.058098e+003,2.089359e+001
2.059062e+003,2.272365e+001
2.060027e+003,2.374306e+001
2.060991e+003,2.192984e+001
2.061955e+003,2.038466e+001
2.062919e+003,2.283510e+001
2.063884e+003,2.591997e+001
2.064848e+003,2.551077e+001
2.065812e+003,2.374516e+001
2.066776e+003,2.370423e+001
2.067740e+003,2.467980e+001
2.068705e+003,2.475873e+001
2.069669e+003,2.384489e+001
2.070633e+003,2.319742e+001
2.071597e+003,2.325591e+001
2.072562e+003,2.328439e+001
2.073526e+003,2.314876e+001
2.074490e+003,2.308945e+001
2.075454e+003,2.187532e+001
2.076418e+003,1.976454e+001
2.077383e+003,2.003812e+001
2.078347e+003,2.179744e+001
2.079311e+003,2.067202e+001
2.080275e+003,1.748375e+001
2.081240e+003,1.739066e+001
2.082204e+003,2.126536e+001
2.083168e+003,2.476820e+001
2.084132e+003,2.524182e+001
2.085096e+003,2.332966e+001
2.086061e+003,2.016838e+001
2.087025e+003,1.682078e+001
2.087989e+003,1.519579e+001
2.088953e+003,1.527682e+001
2.089918e+003,1.734085e+001
2.090882e+003,2.232603e+001
2.091846e+003,2.484542e+001
2.092810e+003,2.375662e+001
2.093775e+003,2.216698e+001
2.094739e+003,2.037301e+001
2.095703e+003,1.915421e+001
2.096667e+003,1.954260e+001
2.097632e+003,2.033141e+001
2.098596e+003,1.987847e+001
2.099560e+003,1.895724e+001
2.100524e+003,1.945528e+001
2.101489e+003,2.120278e+001
2.102453e+003,2.134436e+001
2.103417e+003,1.939025e+001
2.104381e+003,1.747626e+001
2.105345e+003,1.511460e+001
2.106310e+003,1.392503e+001
2.107274e+003,1.514874e+001
2.108238e+003,1.706064e+001
2.109202e+003,1.843552e+001
2.110167e+003,1.931665e+001
2.111131e+003,1.969755e+001
2.112095e+003,1.940490e+001
2.113059e+003,1.916762e+001
2.114023e+003,2.027661e+001
2.114988e+003,2.099116e+001
2.115952e+003,1.840189e+001
2.116916e+003,1.608181e+001
2.117880e+003,1.581944e+001
2.118845e+003,1.570021e+001
2.119809e+003,1.552503e+001
2.120773e+003,1.598971e+001
2.121737e+003,1.710156e+001
2.122702e+003,1.804156e+001
2.123666e+003,1.781581e+001
2.124630e+003,1.655902e+001
2.125594e+003,1.572650e+001
2.126559e+003,1.589949e+001
2.127523e+003,1.562671e+001
2.128487e+003,1.412836e+001
2.129451e+003,1.307798e+001
2.130416e+003,1.287087e+001
2.131380e+003,1.310391e+001
2.132344e+003,1.422827e+001
2.133308e+003,1.522076e+001
2.134272e+003,1.428449e+001
2.135237e+003,1.215476e+001
2.136201e+003,1.070969e+001
2.137165e+003,1.055797e+001
2.138129e+003,1.168734e+001
2.139094e+003,1.415401e+001
2.140058e+003,1.675718e+001
2.141022e+003,1.872323e+001
2.141986e+003,1.908571e+001
2.142950e+003,1.589812e+001
2.143915e+003,1.259061e+001
2.144879e+003,1.347666e+001
2.145843e+003,1.577185e+001
2.146807e+003,1.512291e+001
2.147772e+003,1.295392e+001
2.148736e+003,1.307461e+001
2.149700e+003,1.534060e+001
2.150664e+003,1.663223e+001
2.151629e+003,1.576282e+001
2.152593e+003,1.406189e+001
2.153557e+003,1.235896e+001
2.154521e+003,1.175372e+001
2.155486e+003,1.408629e+001
2.156450e+003,1.675703e+001
2.157414e+003,1.626421e+001
2.158378e+003,1.382171e+001
2.159343e+003,1.083321e+001
2.160307e+003,8.305603e+000
2.161271e+003,8.316048e+000
2.162235e+003,1.070462e+001
2.163199e+003,1.324276e+001
2.164164e+003,1.486862e+001
2.165128e+003,1.535803e+001
2.166092e+003,1.437267e+001
2.167056e+003,1.294556e+001
2.168021e+003,1.163896e+001
2.168985e+003,1.043723e+001
2.169949e+003,1.087175e+001
2.170913e+003,1.200711e+001
2.171877e+003,1.079562e+001
2.172842e+003,8.011154e+000
2.173806e+003,6.110565e+000
2.174770e+003,5.654633e+000
2.175734e+003,7.135551e+000
2.176699e+003,1.048277e+001
2.177663e+003,1.313810e+001
2.178627e+003,1.309138e+001
2.179591e+003,1.132208e+001
2.180556e+003,7.867504e+000
2.181520e+003,3.818462e+000
2.182484e+003,2.405243e+000
2.183448e+003,3.201458e+000
2.184413e+003,4.602192e+000
2.185377e+003,6.283279e+000
2.186341e+003,8.291901e+000
2.187305e+003,1.026044e+001
2.188270e+003,1.056507e+001
2.189234e+003,8.939785e+000
2.190198e+003,8.234627e+000
2.191162e+003,1.045478e+001
2.192126e+003,1.219724e+001
2.193091e+003,8.493126e+000
2.194055e+003,2.417446e+000
2.195019e+003,2.512779e-001
2.195983e+003,1.418682e+000
2.196948e+003,4.364128e+000
2.197912e+003,8.133385e+000
2.198876e+003,1.003377e+001
2.199840e+003,9.682892e+000
2.200804e+003,8.896427e+000
2.201769e+003,8.388428e+000
2.202733e+003,7.521072e+000
2.203697e+003,6.102592e+000
2.204661e+003,4.567497e+000
2.205626e+003,2.960587e+000
2.206590e+003,1.875546e+000
2.207554e+003,2.517273e+000
2.208518e+003,3.879116e+000
2.209483e+003,4.377937e+000
2.210447e+003,4.388626e+000
2.211411e+003,4.753826e+000
2.212375e+003,5.477085e+000
2.213340e+003,6.054790e+000
2.214304e+003,6.341080e+000
2.215268e+003,6.246407e+000
2.216232e+003,5.438984e+000
2.217197e+003,4.211723e+000
2.218161e+003,3.422596e+000
2.219125e+003,2.795845e+000
2.220089e+003,1.230640e+000
2.221053e+003,2.757645e-002
2.222018e+003,1.321297e+000
2.222982e+003,3.807545e+000
2.223946e+003,6.105278e+000
2.224910e+003,8.142654e+000
2.225875e+003,9.002018e+000
2.226839e+003,8.341320e+000
2.227803e+003,6.474709e+000
2.228767e+003,3.597565e+000
2.229731e+003,1.218788e+000
2.230696e+003,9.693680e-001
2.231660e+003,1.429138e+000
2.232624e+003,8.731842e-001
2.233588e+003,4.268723e-001
2.234553e+003,1.563770e+000
2.235517e+003,3.324348e+000
2.236481e+003,3.877789e+000
2.237445e+003,3.073532e+000
2.238410e+003,1.513920e+000
2.239374e+003,1.459846e-001
2.240338e+003,7.179489e-001
2.241302e+003,3.491291e+000
2.242267e+003,6.096561e+000
2.243231e+003,7.028084e+000
2.244195e+003,7.047462e+000
2.245159e+003,6.383816e+000
2.246124e+003,5.308327e+000
2.247088e+003,3.613171e+000
2.248052e+003,2.213078e+000
2.249016e+003,3.840351e+000
2.249980e+003,6.566643e+000
2.250945e+003,6.130177e+000
2.251909e+003,3.305489e+000
2.252873e+003,1.012257e+000
2.253837e+003,2.806473e-002
2.254802e+003,1.050488e+000
2.255766e+003,4.878838e+000
2.256730e+003,7.523739e+000
2.257694e+003,4.179890e+000
2.258658e+003,9.024124e-001
2.259623e+003,3.881485e+000
2.260587e+003,7.557663e+000
2.261551e+003,6.093357e+000
2.262515e+003,2.846729e+000
2.263480e+003,2.663589e+000
2.264444e+003,4.359631e+000
2.265408e+003,4.009121e+000
2.266372e+003,1.483154e+000
2.267337e+003,0.000000e+000
2.268301e+003,6.145210e-001
2.269265e+003,1.910034e+000
2.270229e+003,4.873470e+000
2.271194e+003,7.737873e+000
2.272158e+003,7.478149e+000
2.273122e+003,6.623604e+000
2.274086e+003,7.489109e+000
2.275051e+003,8.478230e+000
2.276015e+003,8.807404e+000
2.276979e+003,8.770988e+000
2.277943e+003,7.841476e+000
2.278907e+003,6.480282e+000
2.279872e+003,6.019440e+000
2.280836e+003,6.333889e+000
2.281800e+003,7.080975e+000
2.282764e+003,9.153278e+000
2.283729e+003,1.060701e+001
2.284693e+003,1.193686e+001
2.285657e+003,1.226320e+001
2.286621e+003,8.389660e+000
2.287585e+003,5.012669e+000
2.288550e+003,5.791157e+000
2.289514e+003,8.043056e+000
2.290478e+003,1.036058e+001
2.291442e+003,1.195658e+001
2.292407e+003,1.009935e+001
2.293371e+003,5.728470e+000
2.294335e+003,5.946842e+000
2.295299e+003,1.226668e+001
2.296264e+003,1.450408e+001
2.297228e+003,1.079728e+001
2.298192e+003,8.095943e+000
2.299156e+003,7.057529e+000
2.300121e+003,8.007664e+000
2.301085e+003,1.148583e+001
2.302049e+003,1.367167e+001
2.303013e+003,1.214377e+001
2.303978e+003,1.020965e+001
2.304942e+003,1.128281e+001
2.305906e+003,1.406425e+001
2.306870e+003,1.608766e+001
2.307834e+003,1.731152e+001
2.308799e+003,1.706409e+001
2.309763e+003,1.549546e+001
2.310727e+003,1.536227e+001
2.311691e+003,1.649802e+001
2.312656e+003,1.612074e+001
2.313620e+003,1.370374e+001
2.314584e+003,1.255679e+001
2.315548e+003,1.399829e+001
2.316512e+003,1.521899e+001
2.317477e+003,1.455849e+001
2.318441e+003,1.425079e+001
2.319405e+003,1.642047e+001
2.320369e+003,2.008150e+001
2.321334e+003,2.376527e+001
2.322298e+003,2.671644e+001
2.323262e+003,2.783769e+001
2.324226e+003,2.870010e+001
2.325191e+003,3.289463e+001
2.326155e+003,3.895575e+001
2.327119e+003,4.177673e+001
2.328083e+003,4.048029e+001
2.329048e+003,3.709978e+001
2.330012e+003,3.326469e+001
2.330976e+003,3.076665e+001
2.331940e+003,3.001016e+001
2.332905e+003,3.018716e+001
2.333869e+003,3.229430e+001
2.334833e+003,3.473831e+001
2.335797e+003,3.542563e+001
2.336761e+003,3.593786e+001
2.337726e+003,3.739017e+001
2.338690e+003,3.894505e+001
2.339654e+003,4.015425e+001
2.340618e+003,4.148993e+001
2.341583e+003,4.399360e+001
2.342547e+003,4.728117e+001
2.343511e+003,4.877353e+001
2.344475e+003,4.742674e+001
2.345439e+003,4.588264e+001
2.346404e+003,4.363630e+001
2.347368e+003,4.366672e+001
2.348332e+003,4.943977e+001
2.349296e+003,5.539881e+001
2.350261e+003,5.967196e+001
2.351225e+003,6.314551e+001
2.352189e+003,6.551258e+001
2.353153e+003,6.706186e+001
2.354118e+003,6.819728e+001
2.355082e+003,6.882681e+001
2.356046e+003,6.877581e+001
2.357010e+003,6.878593e+001
2.357975e+003,7.163127e+001
2.358939e+003,7.847139e+001
2.359903e+003,8.224763e+001
2.360867e+003,8.034444e+001
2.361832e+003,8.057635e+001
2.362796e+003,8.584424e+001
2.363760e+003,8.986116e+001
2.364724e+003,9.058055e+001
2.365688e+003,9.158574e+001
2.366653e+003,9.410902e+001
2.367617e+003,9.678203e+001
2.368581e+003,9.899450e+001
2.369545e+003,1.006268e+002
2.370510e+003,1.008405e+002
2.371474e+003,1.005858e+002
2.372438e+003,1.031891e+002
2.373402e+003,1.075647e+002
2.374366e+003,1.093927e+002
2.375331e+003,1.091561e+002
2.376295e+003,1.096526e+002
2.377259e+003,1.112412e+002
2.378223e+003,1.130512e+002
2.379188e+003,1.147302e+002
2.380152e+003,1.164377e+002
2.381116e+003,1.183661e+002
2.382080e+003,1.206078e+002
2.383045e+003,1.232684e+002
2.384009e+003,1.255138e+002
2.384973e+003,1.265957e+002
2.385937e+003,1.273534e+002
2.386902e+003,1.293915e+002
2.387866e+003,1.315605e+002
2.388830e+003,1.311120e+002
2.389794e+003,1.293026e+002
2.390759e+003,1.284788e+002
2.391723e+003,1.284384e+002
2.392687e+003,1.285304e+002
2.393651e+003,1.291138e+002
2.394615e+003,1.296714e+002
2.395580e+003,1.290127e+002
2.396544e+003,1.305978e+002
2.397508e+003,1.377756e+002
2.398472e+003,1.422364e+002
2.399437e+003,1.418799e+002
2.400401e+003,1.414167e+002
2.401365e+003,1.418772e+002
2.402329e+003,1.422596e+002
2.403293e+003,1.418999e+002
2.404258e+003,1.411274e+002
2.405222e+003,1.404890e+002
2.406186e+003,1.404763e+002
2.407150e+003,1.414283e+002
2.408115e+003,1.431573e+002
2.409079e+003,1.458744e+002
2.410043e+003,1.494436e+002
2.411007e+003,1.518060e+002
2.411972e+003,1.531535e+002
2.412936e+003,1.551715e+002
2.413900e+003,1.574649e+002
2.414864e+003,1.572940e+002
2.415829e+003,1.547626e+002
2.416793e+003,1.536089e+002
2.417757e+003,1.552659e+002
2.418721e+003,1.570652e+002
2.419686e+003,1.572374e+002
2.420650e+003,1.566152e+002
2.421614e+003,1.551580e+002
2.422578e+003,1.539619e+002
2.423542e+003,1.543659e+002
2.424507e+003,1.551750e+002
2.425471e+003,1.553246e+002
2.426435e+003,1.558443e+002
2.427399e+003,1.578042e+002
2.428364e+003,1.599784e+002
2.429328e+003,1.613797e+002
2.430292e+003,1.622508e+002
2.431256e+003,1.619757e+002
2.432220e+003,1.601514e+002
2.433185e+003,1.583578e+002
2.434149e+003,1.548142e+002
2.435113e+003,1.537016e+002
2.436077e+003,1.575114e+002
2.437042e+003,1.597388e+002
2.438006e+003,1.583776e+002
2.438970e+003,1.570062e+002
2.439934e+003,1.575903e+002
2.440899e+003,1.574622e+002
2.441863e+003,1.545339e+002
2.442827e+003,1.505651e+002
2.443791e+003,1.473154e+002
2.444756e+003,1.447657e+002
2.445720e+003,1.442781e+002
2.446684e+003,1.453322e+002
2.447648e+003,1.453285e+002
2.448613e+003,1.444874e+002
2.449577e+003,1.432182e+002
2.450541e+003,1.416171e+002
2.451505e+003,1.395954e+002
2.452469e+003,1.374930e+002
2.453434e+003,1.361174e+002
2.454398e+003,1.350220e+002
2.455362e+003,1.330911e+002
2.456326e+003,1.309332e+002
2.457291e+003,1.299411e+002
2.458255e+003,1.305147e+002
2.459219e+003,1.308152e+002
2.460183e+003,1.292231e+002
2.461147e+003,1.264701e+002
2.462112e+003,1.230199e+002
2.463076e+003,1.209469e+002
2.464040e+003,1.218260e+002
2.465004e+003,1.229885e+002
2.465969e+003,1.226428e+002
2.466933e+003,1.215242e+002
2.467897e+003,1.189356e+002
2.468861e+003,1.149923e+002
2.469826e+003,1.151986e+002
2.470790e+003,1.203767e+002
2.471754e+003,1.242674e+002
2.472718e+003,1.273567e+002
2.473683e+003,1.276220e+002
2.474647e+003,1.241335e+002
2.475611e+003,1.200289e+002
2.476575e+003,1.167186e+002
2.477540e+003,1.141206e+002
2.478504e+003,1.119155e+002
2.479468e+003,1.104341e+002
2.480432e+003,1.100770e+002
2.481396e+003,1.099042e+002
2.482361e+003,1.093889e+002
2.483325e+003,1.087434e+002
2.484289e+003,1.068736e+002
2.485253e+003,1.046071e+002
2.486218e+003,1.031222e+002
2.487182e+003,1.019783e+002
2.488146e+003,1.011838e+002
2.489110e+003,1.006977e+002
2.490074e+003,1.000476e+002
2.491039e+003,9.976239e+001
2.492003e+003,1.008636e+002
2.492967e+003,1.024529e+002
2.493931e+003,1.021321e+002
2.494896e+003,9.975788e+001
2.495860e+003,9.985027e+001
2.496824e+003,1.042187e+002
2.497788e+003,1.045686e+002
2.498753e+003,9.859552e+001
2.499717e+003,9.492609e+001
2.500681e+003,9.617758e+001
2.501645e+003,9.777724e+001
2.502610e+003,9.730716e+001
2.503574e+003,9.719244e+001
2.504538e+003,9.981071e+001
2.505502e+003,1.025625e+002
2.506467e+003,1.011852e+002
2.507431e+003,9.808572e+001
2.508395e+003,9.709654e+001
2.509359e+003,9.758394e+001
2.510323e+003,9.915627e+001
2.511288e+003,1.008635e+002
2.512252e+003,1.018029e+002
2.513216e+003,1.019559e+002
2.514180e+003,1.008132e+002
2.515145e+003,9.931876e+001
2.516109e+003,1.000902e+002
2.517073e+003,1.030882e+002
2.518037e+003,1.042132e+002
2.519001e+003,1.022435e+002
2.519966e+003,1.015574e+002
2.520930e+003,1.032987e+002
2.521894e+003,1.029596e+002
2.522858e+003,9.974714e+001
2.523823e+003,9.612781e+001
2.524787e+003,9.237045e+001
2.525751e+003,9.154126e+001
2.526715e+003,9.511749e+001
2.527680e+003,9.897066e+001
2.528644e+003,1.001215e+002
2.529608e+003,9.994525e+001
2.530572e+003,9.920499e+001
2.531537e+003,9.801808e+001
2.532501e+003,9.709755e+001
2.533465e+003,9.659630e+001
2.534429e+003,9.688864e+001
2.535394e+003,9.774174e+001
2.536358e+003,9.899190e+001
2.537322e+003,9.938940e+001
2.538286e+003,9.688258e+001
2.539250e+003,9.306658e+001
2.540215e+003,9.139049e+001
2.541179e+003,9.195776e+001
2.542143e+003,9.369426e+001
2.543107e+003,9.773552e+001
2.544072e+003,9.989319e+001
2.545036e+003,9.900462e+001
2.546000e+003,9.737517e+001
2.546964e+003,9.479060e+001
2.547928e+003,9.373730e+001
2.548893e+003,9.472375e+001
2.549857e+003,9.498990e+001
2.550821e+003,9.370955e+001
2.551785e+003,9.232602e+001
2.552750e+003,9.169043e+001
2.553714e+003,9.153941e+001
2.554678e+003,9.190436e+001
2.555642e+003,9.249027e+001
2.556607e+003,9.261325e+001
2.557571e+003,9.187505e+001
2.558535e+003,8.970609e+001
2.559499e+003,8.735141e+001
2.560464e+003,8.654497e+001
2.561428e+003,8.683212e+001
2.562392e+003,8.705051e+001
2.563356e+003,8.682117e+001
2.564321e+003,8.613365e+001
2.565285e+003,8.541735e+001
2.566249e+003,8.528163e+001
2.567213e+003,8.528944e+001
2.568177e+003,8.529079e+001
2.569142e+003,8.543138e+001
2.570106e+003,8.524284e+001
2.571070e+003,8.494751e+001
2.572034e+003,8.190823e+001
2.572999e+003,7.671909e+001
2.573963e+003,7.436699e+001
2.574927e+003,7.548580e+001
2.575891e+003,7.822256e+001
2.576855e+003,8.133684e+001
2.577820e+003,8.205655e+001
2.578784e+003,7.925699e+001
2.579748e+003,7.647106e+001
2.580712e+003,7.554929e+001
2.581677e+003,7.485313e+001
2.582641e+003,7.169148e+001
2.583605e+003,6.961835e+001
2.584569e+003,7.295009e+001
2.585534e+003,7.549992e+001
2.586498e+003,7.312815e+001
2.587462e+003,6.965331e+001
2.588426e+003,6.866525e+001
2.589391e+003,6.881808e+001
2.590355e+003,6.812492e+001
2.591319e+003,6.693143e+001
2.592283e+003,6.588748e+001
2.593248e+003,6.506639e+001
2.594212e+003,6.479489e+001
2.595176e+003,6.472171e+001
2.596140e+003,6.351019e+001
2.597104e+003,6.211253e+001
2.598069e+003,6.347753e+001
2.599033e+003,6.640053e+001
2.599997e+003,6.706538e+001
2.600961e+003,6.513301e+001
2.601926e+003,6.180248e+001
2.602890e+003,5.605699e+001
2.603854e+003,5.464459e+001
2.604818e+003,6.127494e+001
2.605782e+003,6.288840e+001
2.606747e+003,5.764348e+001
2.607711e+003,5.439041e+001
2.608675e+003,5.493686e+001
2.609639e+003,5.580621e+001
2.610604e+003,5.579782e+001
2.611568e+003,5.626316e+001
2.612532e+003,5.788501e+001
2.613496e+003,5.943517e+001
2.614461e+003,5.957214e+001
2.615425e+003,5.932339e+001
2.616389e+003,6.069765e+001
2.617353e+003,6.139529e+001
2.618318e+003,5.880176e+001
2.619282e+003,5.610723e+001
2.620246e+003,5.693031e+001
2.621210e+003,5.879863e+001
2.622175e+003,5.774278e+001
2.623139e+003,5.541815e+001
2.624103e+003,5.435460e+001
2.625067e+003,5.357890e+001
2.626031e+003,5.207196e+001
2.626996e+003,5.127531e+001
2.627960e+003,5.323076e+001
2.628924e+003,5.645119e+001
2.629888e+003,5.586255e+001
2.630853e+003,5.253529e+001
2.631817e+003,5.125285e+001
2.632781e+003,5.284458e+001
2.633745e+003,5.493144e+001
2.634709e+003,5.583430e+001
2.635674e+003,5.554139e+001
2.636638e+003,5.446474e+001
2.637602e+003,5.341248e+001
2.638566e+003,5.371631e+001
2.639531e+003,5.420552e+001
2.640495e+003,5.273944e+001
2.641459e+003,5.209307e+001
2.642423e+003,5.344509e+001
2.643388e+003,5.362452e+001
2.644352e+003,5.156916e+001
2.645316e+003,4.951060e+001
2.646280e+003,4.820803e+001
2.647245e+003,4.768423e+001
2.648209e+003,4.861407e+001
2.649173e+003,4.931310e+001
2.650137e+003,4.699622e+001
2.651102e+003,4.491959e+001
2.652066e+003,4.622159e+001
2.653030e+003,4.724767e+001
2.653994e+003,4.678841e+001
2.654958e+003,4.652846e+001
2.655923e+003,4.797385e+001
2.656887e+003,4.944234e+001
2.657851e+003,4.804556e+001
2.658815e+003,4.604344e+001
2.659780e+003,4.683267e+001
2.660744e+003,4.837735e+001
2.661708e+003,4.651788e+001
2.662672e+003,4.256694e+001
2.663636e+003,3.966400e+001
2.664601e+003,3.804110e+001
2.665565e+003,3.958150e+001
2.666529e+003,4.255795e+001
2.667493e+003,4.343890e+001
2.668458e+003,4.291113e+001
2.669422e+003,4.214155e+001
2.670386e+003,4.102953e+001
2.671350e+003,4.035369e+001
2.672315e+003,4.086597e+001
2.673279e+003,4.119280e+001
2.674243e+003,4.030809e+001
2.675207e+003,3.986622e+001
2.676172e+003,4.050622e+001
2.677136e+003,3.896228e+001
2.678100e+003,3.538840e+001
2.679064e+003,3.476357e+001
2.680029e+003,3.684628e+001
2.680993e+003,3.924084e+001
2.681957e+003,4.133342e+001
2.682921e+003,4.067358e+001
2.683885e+003,3.631253e+001
2.684850e+003,3.351596e+001
2.685814e+003,3.651964e+001
2.686778e+003,3.918124e+001
2.687742e+003,3.680355e+001
2.688707e+003,3.559098e+001
2.689671e+003,3.737075e+001
2.690635e+003,3.776308e+001
2.691599e+003,3.647045e+001
2.692563e+003,3.409531e+001
2.693528e+003,3.063408e+001
2.694492e+003,2.877021e+001
2.695456e+003,3.030444e+001
2.696420e+003,3.283789e+001
2.697385e+003,3.424466e+001
2.698349e+003,3.426181e+001
2.699313e+003,3.200388e+001
2.700277e+003,2.953676e+001
2.701242e+003,2.771815e+001
2.702206e+003,2.612448e+001
2.703170e+003,2.530072e+001
2.704134e+003,2.462903e+001
2.705099e+003,2.339986e+001
2.706063e+003,2.307196e+001
2.707027e+003,2.541901e+001
2.707991e+003,2.796188e+001
2.708956e+003,2.538697e+001
2.709920e+003,1.962923e+001
2.710884e+003,1.885216e+001
2.711848e+003,2.135593e+001
2.712813e+003,2.127641e+001
2.713777e+003,2.054250e+001
2.714741e+003,2.219447e+001
2.715705e+003,2.386013e+001
2.716669e+003,2.329590e+001
2.717634e+003,2.174701e+001
2.718598e+003,2.098359e+001
2.719562e+003,2.175816e+001
2.720526e+003,2.330925e+001
2.721490e+003,2.382581e+001
2.722455e+003,2.227019e+001
2.723419e+003,1.969347e+001
2.724383e+003,1.903639e+001
2.725347e+003,2.005963e+001
2.726312e+003,1.997034e+001
2.727276e+003,1.818778e+001
2.728240e+003,1.671883e+001
2.729204e+003,1.689322e+001
2.730169e+003,1.771772e+001
2.731133e+003,1.784711e+001
2.732097e+003,1.862702e+001
2.733061e+003,2.143846e+001
2.734026e+003,2.163371e+001
2.734990e+003,1.992175e+001
2.735954e+003,1.880539e+001
2.736918e+003,1.696054e+001
2.737883e+003,1.670117e+001
2.738847e+003,1.798515e+001
2.739811e+003,1.787040e+001
2.740775e+003,1.588221e+001
2.741740e+003,1.374682e+001
2.742704e+003,1.289429e+001
2.743668e+003,1.384921e+001
2.744632e+003,1.655599e+001
2.745596e+003,1.874984e+001
2.746561e+003,1.825579e+001
2.747525e+003,1.656462e+001
2.748489e+003,1.550586e+001
2.749453e+003,1.425736e+001
2.750417e+003,1.249186e+001
2.751382e+003,1.272265e+001
2.752346e+003,1.566605e+001
2.753310e+003,1.683029e+001
2.754274e+003,1.311089e+001
2.755239e+003,9.620705e+000
2.756203e+003,1.213823e+001
2.757167e+003,1.506416e+001
2.758131e+003,1.205859e+001
2.759096e+003,8.948719e+000
2.760060e+003,1.024160e+001
2.761024e+003,1.214070e+001
2.761988e+003,1.252706e+001
2.762953e+003,1.226012e+001
2.763917e+003,1.157378e+001
2.764881e+003,1.090534e+001
2.765845e+003,1.058750e+001
2.766810e+003,1.096915e+001
2.767774e+003,1.346282e+001
2.768738e+003,1.621805e+001
2.769702e+003,1.521988e+001
2.770667e+003,1.323651e+001
2.771631e+003,1.167936e+001
2.772595e+003,1.035514e+001
2.773559e+003,1.144196e+001
2.774523e+003,1.338634e+001
2.775488e+003,1.456433e+001
2.776452e+003,1.574667e+001
2.777416e+003,1.564845e+001
2.778380e+003,1.293954e+001
2.779344e+003,1.122321e+001
2.780309e+003,1.184253e+001
2.781273e+003,1.170015e+001
2.782237e+003,1.231743e+001
2.783201e+003,1.443327e+001
2.784166e+003,1.449823e+001
2.785130e+003,1.070720e+001
2.786094e+003,6.621372e+000
2.787058e+003,6.522091e+000
2.788023e+003,9.668072e+000
2.788987e+003,1.290807e+001
2.789951e+003,1.513069e+001
2.790915e+003,1.496545e+001
2.791880e+003,1.296375e+001
2.792844e+003,1.081382e+001
2.793808e+003,9.016994e+000
2.794772e+003,7.376873e+000
2.795737e+003,5.574596e+000
2.796701e+003,6.299568e+000
2.797665e+003,8.814598e+000
2.798629e+003,1.016943e+001
2.799594e+003,1.086608e+001
2.800558e+003,1.244813e+001
2.801522e+003,1.425646e+001
2.802486e+003,1.426397e+001
2.803450e+003,1.171418e+001
2.804415e+003,1.233111e+001
2.805379e+003,1.555212e+001
2.806343e+003,1.609286e+001
2.807307e+003,1.602168e+001
2.808271e+003,1.520284e+001
2.809236e+003,1.245922e+001
2.810200e+003,1.068120e+001
2.811164e+003,1.098767e+001
2.812128e+003,1.126059e+001
2.813093e+003,1.138258e+001
2.814057e+003,1.249612e+001
2.815021e+003,1.249116e+001
2.815985e+003,1.180299e+001
2.816950e+003,1.249838e+001
2.817914e+003,1.300764e+001
2.818878e+003,1.242793e+001
2.819842e+003,1.103287e+001
2.820807e+003,9.800495e+000
2.821771e+003,9.220970e+000
2.822735e+003,8.714832e+000
2.823699e+003,9.372841e+000
2.824664e+003,1.232011e+001
2.825628e+003,1.228554e+001
2.826592e+003,8.435299e+000
2.827556e+003,7.177685e+000
2.828521e+003,7.509872e+000
2.829485e+003,7.388897e+000
2.830449e+003,7.379025e+000
2.831413e+003,6.785923e+000
2.832377e+003,5.691502e+000
2.833342e+003,7.338554e+000
2.834306e+003,1.170188e+001
2.835270e+003,1.355790e+001
2.836234e+003,1.131775e+001
2.837198e+003,9.586655e+000
2.838163e+003,8.864124e+000
2.839127e+003,9.555622e+000
2.840091e+003,1.180255e+001
2.841055e+003,1.300812e+001
2.842020e+003,1.257883e+001
2.842984e+003,1.051956e+001
2.843948e+003,7.865093e+000
2.844912e+003,7.919449e+000
2.845877e+003,1.062782e+001
2.846841e+003,1.065432e+001
2.847805e+003,6.226444e+000
2.848769e+003,4.112370e+000
2.849734e+003,6.095177e+000
2.850698e+003,6.138126e+000
2.851662e+003,3.938606e+000
2.852626e+003,3.734467e+000
2.853591e+003,5.978828e+000
2.854555e+003,7.729565e+000
2.855519e+003,8.335491e+000
2.856483e+003,9.550446e+000
2.857448e+003,1.127860e+001
2.858412e+003,1.023066e+001
2.859376e+003,5.586243e+000
2.860340e+003,3.869278e+000
2.861304e+003,6.592213e+000
2.862269e+003,7.765915e+000
2.863233e+003,6.610722e+000
2.864197e+003,7.273418e+000
2.865161e+003,1.043840e+001
2.866125e+003,1.080920e+001
2.867090e+003,7.820892e+000
2.868054e+003,6.118443e+000
2.869018e+003,6.761597e+000
2.869982e+003,7.788925e+000
2.870947e+003,9.844841e+000
2.871911e+003,1.083187e+001
2.872875e+003,8.768257e+000
2.873839e+003,7.550739e+000
2.874804e+003,7.516712e+000
2.875768e+003,7.904766e+000
2.876732e+003,8.484676e+000
2.877696e+003,7.713287e+000
2.878661e+003,5.867031e+000
2.879625e+003,5.174667e+000
2.880589e+003,6.069042e+000
2.881553e+003,7.608959e+000
2.882518e+003,9.957615e+000
2.883482e+003,1.116438e+001
2.884446e+003,1.070272e+001
2.885410e+003,1.168974e+001
2.886375e+003,1.394278e+001
2.887339e+003,1.406034e+001
2.888303e+003,1.233863e+001
2.889267e+003,1.107397e+001
2.890231e+003,1.088532e+001
2.891196e+003,1.221787e+001
2.892160e+003,1.485879e+001
2.893124e+003,1.688664e+001
2.894088e+003,1.802833e+001
2.895052e+003,1.795691e+001
2.896017e+003,1.644356e+001
2.896981e+003,1.746393e+001
2.897945e+003,2.057025e+001
2.898909e+003,2.229623e+001
2.899874e+003,2.245105e+001
2.900838e+003,2.109724e+001
2.901802e+003,1.930692e+001
2.902766e+003,1.995717e+001
2.903731e+003,2.326077e+001
2.904695e+003,2.679253e+001
2.905659e+003,3.047703e+001
2.906623e+003,3.129571e+001
2.907588e+003,2.952602e+001
2.908552e+003,3.029395e+001
2.909516e+003,3.273293e+001
2.910480e+003,3.250909e+001
2.911445e+003,3.113940e+001
2.912409e+003,3.432857e+001
2.913373e+003,4.019781e+001
2.914337e+003,4.097796e+001
2.915302e+003,3.720271e+001
2.916266e+003,3.587707e+001
2.917230e+003,3.679132e+001
2.918194e+003,3.733816e+001
2.919158e+003,3.769581e+001
2.920123e+003,3.867055e+001
2.921087e+003,4.009342e+001
2.922051e+003,4.166830e+001
2.923015e+003,4.325383e+001
2.923979e+003,4.439833e+001
2.924944e+003,4.559779e+001
2.925908e+003,4.833303e+001
2.926872e+003,5.174713e+001
2.927836e+003,5.302709e+001
2.928801e+003,5.275019e+001
2.929765e+003,5.312188e+001
2.930729e+003,5.410223e+001
2.931693e+003,5.628828e+001
2.932658e+003,5.843249e+001
2.933622e+003,5.814093e+001
2.934586e+003,5.718617e+001
2.935550e+003,5.874195e+001
2.936515e+003,6.099183e+001
2.937479e+003,6.112358e+001
2.938443e+003,6.065378e+001
2.939407e+003,6.343412e+001
2.940372e+003,6.750856e+001
2.941336e+003,6.858314e+001
2.942300e+003,6.856802e+001
2.943264e+003,6.998041e+001
2.944229e+003,7.137061e+001
2.945193e+003,7.033992e+001
2.946157e+003,6.970209e+001
2.947121e+003,7.224516e+001
2.948085e+003,7.509333e+001
2.949050e+003,7.482433e+001
2.950014e+003,7.329193e+001
2.950978e+003,7.316933e+001
2.951942e+003,7.353993e+001
2.952906e+003,7.312038e+001
2.953871e+003,7.309966e+001
2.954835e+003,7.496775e+001
2.955799e+003,7.658733e+001
2.956763e+003,7.665456e+001
2.957728e+003,7.698024e+001
2.958692e+003,7.880191e+001
2.959656e+003,7.973689e+001
2.960620e+003,7.737952e+001
2.961585e+003,7.553658e+001
2.962549e+003,7.873834e+001
2.963513e+003,8.224860e+001
2.964477e+003,8.372957e+001
2.965442e+003,8.464929e+001
2.966406e+003,8.528620e+001
2.967370e+003,8.621585e+001
2.968334e+003,8.764956e+001
2.969299e+003,8.816409e+001
2.970263e+003,8.719891e+001
2.971227e+003,8.763244e+001
2.972191e+003,9.165717e+001
2.973156e+003,9.429423e+001
2.974120e+003,9.152309e+001
2.975084e+003,9.020573e+001
2.976048e+003,9.149507e+001
2.977012e+003,9.264027e+001
2.977977e+003,9.323044e+001
2.978941e+003,9.432295e+001
2.979905e+003,9.592146e+001
2.980869e+003,9.608640e+001
2.981833e+003,9.443507e+001
2.982798e+003,9.370432e+001
2.983762e+003,9.491253e+001
2.984726e+003,9.632048e+001
2.985690e+003,9.799187e+001
2.986655e+003,9.863899e+001
2.987619e+003,9.835291e+001
2.988583e+003,9.913631e+001
2.989547e+003,1.007139e+002
2.990512e+003,1.008674e+002
2.991476e+003,9.997699e+001
2.992440e+003,1.004557e+002
2.993404e+003,1.026713e+002
2.994369e+003,1.056683e+002
2.995333e+003,1.093016e+002
2.996297e+003,1.118763e+002
2.997261e+003,1.131080e+002
2.998226e+003,1.096905e+002
2.999190e+003,1.044288e+002
3.000154e+003,1.040985e+002
3.001118e+003,1.065866e+002
3.002083e+003,1.069335e+002
3.003047e+003,1.064386e+002
3.004011e+003,1.091195e+002
3.004975e+003,1.129098e+002
3.005939e+003,1.124888e+002
3.006904e+003,1.099641e+002
3.007868e+003,1.113819e+002
3.008832e+003,1.141643e+002
3.009796e+003,1.142565e+002
3.010760e+003,1.140084e+002
3.011725e+003,1.170957e+002
3.012689e+003,1.194789e+002
3.013653e+003,1.172920e+002
3.014617e+003,1.149389e+002
3.015582e+003,1.169700e+002
3.016546e+003,1.203263e+002
3.017510e+003,1.215345e+002
3.018474e+003,1.212605e+002
3.019439e+003,1.182794e+002
3.020403e+003,1.167035e+002
3.021367e+003,1.208712e+002
3.022331e+003,1.231756e+002
3.023296e+003,1.208022e+002
3.024260e+003,1.195431e+002
3.025224e+003,1.221050e+002
3.026188e+003,1.249677e+002
3.027153e+003,1.259826e+002
3.028117e+003,1.263421e+002
3.029081e+003,1.253637e+002
3.030045e+003,1.269194e+002
3.031010e+003,1.333398e+002
3.031974e+003,1.361438e+002
3.032938e+003,1.343386e+002
3.033902e+003,1.337017e+002
3.034866e+003,1.353256e+002
3.035831e+003,1.376187e+002
3.036795e+003,1.399229e+002
3.037759e+003,1.417326e+002
3.038723e+003,1.429115e+002
3.039688e+003,1.431376e+002
3.040652e+003,1.421298e+002
3.041616e+003,1.428084e+002
3.042580e+003,1.447834e+002
3.043544e+003,1.457479e+002
3.044509e+003,1.457650e+002
3.045473e+003,1.450999e+002
3.046437e+003,1.444062e+002
3.047401e+003,1.452468e+002
3.048366e+003,1.469846e+002
3.049330e+003,1.475097e+002
3.050294e+003,1.472345e+002
3.051258e+003,1.475519e+002
3.052223e+003,1.484220e+002
3.053187e+003,1.498295e+002
3.054151e+003,1.516524e+002
3.055115e+003,1.543666e+002
3.056080e+003,1.566946e+002
3.057044e+003,1.571850e+002
3.058008e+003,1.572264e+002
3.058972e+003,1.580280e+002
3.059937e+003,1.588964e+002
3.060901e+003,1.588310e+002
3.061865e+003,1.589660e+002
3.062829e+003,1.616198e+002
3.063793e+003,1.633205e+002
3.064758e+003,1.605234e+002
3.065722e+003,1.589122e+002
3.066686e+003,1.601712e+002
3.067650e+003,1.628371e+002
3.068615e+003,1.662128e+002
3.069579e+003,1.679516e+002
3.070543e+003,1.669272e+002
3.071507e+003,1.661621e+002
3.072471e+003,1.672833e+002
3.073436e+003,1.684470e+002
3.074400e+003,1.695933e+002
3.075364e+003,1.699209e+002
3.076328e+003,1.694082e+002
3.077293e+003,1.682733e+002
3.078257e+003,1.671437e+002
3.079221e+003,1.683978e+002
3.080185e+003,1.717755e+002
3.081150e+003,1.747945e+002
3.082114e+003,1.767955e+002
3.083078e+003,1.764076e+002
3.084042e+003,1.739173e+002
3.085007e+003,1.736026e+002
3.085971e+003,1.746730e+002
3.086935e+003,1.753127e+002
3.087899e+003,1.752284e+002
3.088864e+003,1.732805e+002
3.089828e+003,1.713188e+002
3.090792e+003,1.717780e+002
3.091756e+003,1.738700e+002
3.092720e+003,1.767765e+002
3.093685e+003,1.798058e+002
3.094649e+003,1.820659e+002
3.095613e+003,1.833812e+002
3.096577e+003,1.830351e+002
3.097542e+003,1.823573e+002
3.098506e+003,1.815841e+002
3.099470e+003,1.820779e+002
3.100434e+003,1.846615e+002
3.101398e+003,1.856673e+002
3.102363e+003,1.833180e+002
3.103327e+003,1.812995e+002
3.104291e+003,1.818847e+002
3.105255e+003,1.833421e+002
3.106220e+003,1.852633e+002
3.107184e+003,1.873721e+002
3.108148e+003,1.898485e+002
3.109112e+003,1.905491e+002
3.110077e+003,1.896912e+002
3.111041e+003,1.906152e+002
3.112005e+003,1.933017e+002
3.112969e+003,1.953160e+002
3.113934e+003,1.960635e+002
3.114898e+003,1.955790e+002
3.115862e+003,1.940908e+002
3.116826e+003,1.932703e+002
3.117791e+003,1.930999e+002
3.118755e+003,1.934682e+002
3.119719e+003,1.944197e+002
3.120683e+003,1.961321e+002
3.121647e+003,1.983966e+002
3.122612e+003,2.014738e+002
3.123576e+003,2.042794e+002
3.124540e+003,2.057135e+002
3.125504e+003,2.063441e+002
3.126469e+003,2.070733e+002
3.127433e+003,2.071312e+002
3.128397e+003,2.042357e+002
3.129361e+003,2.023125e+002
3.130325e+003,2.050173e+002
3.131290e+003,2.072620e+002
3.132254e+003,2.075413e+002
3.133218e+003,2.074605e+002
3.134182e+003,2.077240e+002
3.135147e+003,2.091202e+002
3.136111e+003,2.120098e+002
3.137075e+003,2.132292e+002
3.138039e+003,2.098142e+002
3.139004e+003,2.103580e+002
3.139968e+003,2.156723e+002
3.140932e+003,2.180045e+002
3.141896e+003,2.173943e+002
3.142861e+003,2.160976e+002
3.143825e+003,2.151803e+002
3.144789e+003,2.164976e+002
3.145753e+003,2.194585e+002
3.146718e+003,2.215020e+002
3.147682e+003,2.226330e+002
3.148646e+003,2.230109e+002
3.149610e+003,2.227072e+002
3.150574e+003,2.208580e+002
3.151539e+003,2.196241e+002
3.152503e+003,2.227362e+002
3.153467e+003,2.265287e+002
3.154431e+003,2.282937e+002
3.155396e+003,2.285871e+002
3.156360e+003,2.276312e+002
3.157324e+003,2.274179e+002
3.158288e+003,2.300023e+002
3.159252e+003,2.317130e+002
3.160217e+003,2.276974e+002
3.161181e+003,2.263186e+002
3.162145e+003,2.305845e+002
3.163109e+003,2.327442e+002
3.164074e+003,2.319004e+002
3.165038e+003,2.330622e+002
3.166002e+003,2.364931e+002
3.166966e+003,2.370946e+002
3.167931e+003,2.341831e+002
3.168895e+003,2.341499e+002
3.169859e+003,2.373499e+002
3.170823e+003,2.394371e+002
3.171788e+003,2.405015e+002
3.172752e+003,2.410640e+002
3.173716e+003,2.409249e+002
3.174680e+003,2.388010e+002
3.175645e+003,2.365007e+002
3.176609e+003,2.362894e+002
3.177573e+003,2.379977e+002
3.178537e+003,2.418749e+002
3.179501e+003,2.456196e+002
3.180466e+003,2.459245e+002
3.181430e+003,2.451248e+002
3.182394e+003,2.451663e+002
3.183358e+003,2.454726e+002
3.184323e+003,2.458630e+002
3.185287e+003,2.464504e+002
3.186251e+003,2.472695e+002
3.187215e+003,2.464431e+002
3.188179e+003,2.438245e+002
3.189144e+003,2.431910e+002
3.190108e+003,2.459586e+002
3.191072e+003,2.491665e+002
3.192036e+003,2.525995e+002
3.193001e+003,2.546438e+002
3.193965e+003,2.552899e+002
3.194929e+003,2.535609e+002
3.195893e+003,2.509691e+002
3.196858e+003,2.511243e+002
3.197822e+003,2.527570e+002
3.198786e+003,2.530745e+002
3.199750e+003,2.523288e+002
3.200715e+003,2.507030e+002
3.201679e+003,2.494695e+002
3.202643e+003,2.515770e+002
3.203607e+003,2.544304e+002
3.204572e+003,2.560386e+002
3.205536e+003,2.564121e+002
3.206500e+003,2.550748e+002
3.207464e+003,2.540769e+002
3.208428e+003,2.540833e+002
3.209393e+003,2.554873e+002
3.210357e+003,2.582923e+002
3.211321e+003,2.606246e+002
3.212285e+003,2.617165e+002
3.213250e+003,2.618507e+002
3.214214e+003,2.608710e+002
3.215178e+003,2.613135e+002
3.216142e+003,2.626617e+002
3.217106e+003,2.614056e+002
3.218071e+003,2.591042e+002
3.219035e+003,2.602130e+002
3.219999e+003,2.632491e+002
3.220963e+003,2.641353e+002
3.221928e+003,2.641125e+002
3.222892e+003,2.655898e+002
3.223856e+003,2.676724e+002
3.224820e+003,2.693823e+002
3.225785e+003,2.702382e+002
3.226749e+003,2.691989e+002
3.227713e+003,2.681450e+002
3.228677e+003,2.676429e+002
3.229642e+003,2.681478e+002
3.230606e+003,2.696771e+002
3.231570e+003,2.700300e+002
3.232534e+003,2.681720e+002
3.233499e+003,2.675381e+002
3.234463e+003,2.696100e+002
3.235427e+003,2.720143e+002
3.236391e+003,2.746565e+002
3.237355e+003,2.743300e+002
3.238320e+003,2.724687e+002
3.239284e+003,2.736699e+002
3.240248e+003,2.768292e+002
3.241212e+003,2.788286e+002
3.242177e+003,2.800867e+002
3.243141e+003,2.815905e+002
3.244105e+003,2.828624e+002
3.245069e+003,2.827411e+002
3.246033e+003,2.822584e+002
3.246998e+003,2.819587e+002
3.247962e+003,2.826564e+002
3.248926e+003,2.853057e+002
3.249890e+003,2.867126e+002
3.250855e+003,2.859544e+002
3.251819e+003,2.845240e+002
3.252783e+003,2.832665e+002
3.253747e+003,2.841215e+002
3.254712e+003,2.883069e+002
3.255676e+003,2.902258e+002
3.256640e+003,2.895686e+002
3.257604e+003,2.894536e+002
3.258569e+003,2.898470e+002
3.259533e+003,2.903370e+002
3.260497e+003,2.910742e+002
3.261461e+003,2.923926e+002
3.262426e+003,2.942713e+002
3.263390e+003,2.967496e+002
3.264354e+003,2.992618e+002
3.265318e+003,3.012448e+002
3.266282e+003,3.020159e+002
3.267247e+003,2.991118e+002
3.268211e+003,2.977118e+002
3.269175e+003,3.009487e+002
3.270139e+003,3.029219e+002
3.271104e+003,3.025394e+002
3.272068e+003,3.040900e+002
3.273032e+003,3.082226e+002
3.273996e+003,3.107983e+002
3.274960e+003,3.105867e+002
3.275925e+003,3.098948e+002
3.276889e+003,3.088843e+002
3.277853e+003,3.073922e+002
3.278817e+003,3.060970e+002
3.279782e+003,3.072813e+002
3.280746e+003,3.095966e+002
3.281710e+003,3.114137e+002
3.282674e+003,3.127408e+002
3.283639e+003,3.136829e+002
3.284603e+003,3.144122e+002
3.285567e+003,3.150304e+002
3.286531e+003,3.159528e+002
3.287496e+003,3.184677e+002
3.288460e+003,3.195101e+002
3.289424e+003,3.175631e+002
3.290388e+003,3.174368e+002
3.291353e+003,3.194443e+002
3.292317e+003,3.203887e+002
3.293281e+003,3.202381e+002
3.294245e+003,3.218806e+002
3.295209e+003,3.249250e+002
3.296174e+003,3.250147e+002
3.297138e+003,3.228323e+002
3.298102e+003,3.206475e+002
3.299066e+003,3.192267e+002
3.300031e+003,3.204901e+002
3.300995e+003,3.227279e+002
3.301959e+003,3.248918e+002
3.302923e+003,3.265745e+002
3.303887e+003,3.276384e+002
3.304852e+003,3.274944e+002
3.305816e+003,3.258193e+002
3.306780e+003,3.253083e+002
3.307744e+003,3.278640e+002
3.308709e+003,3.303699e+002
3.309673e+003,3.326718e+002
3.310637e+003,3.332111e+002
3.311601e+003,3.325719e+002
3.312566e+003,3.336740e+002
3.313530e+003,3.356985e+002
3.314494e+003,3.362211e+002
3.315458e+003,3.354881e+002
3.316423e+003,3.341148e+002
3.317387e+003,3.329097e+002
3.318351e+003,3.329663e+002
3.319315e+003,3.345258e+002
3.320280e+003,3.396121e+002
3.321244e+003,3.432168e+002
3.322208e+003,3.435608e+002
3.323172e+003,3.423958e+002
3.324136e+003,3.403846e+002
3.325101e+003,3.393182e+002
3.326065e+003,3.397261e+002
3.327029e+003,3.409557e+002
3.327993e+003,3.428651e+002
3.328958e+003,3.447932e+002
3.329922e+003,3.466345e+002
3.330886e+003,3.475966e+002
3.331850e+003,3.478905e+002
3.332814e+003,3.465560e+002
3.333779e+003,3.466303e+002
3.334743e+003,3.521017e+002
3.335707e+003,3.563327e+002
3.336671e+003,3.544427e+002
3.337636e+003,3.519221e+002
3.338600e+003,3.531895e+002
3.339564e+003,3.554063e+002
3.340528e+003,3.585116e+002
3.341493e+003,3.587267e+002
3.342457e+003,3.561855e+002
3.343421e+003,3.585732e+002
3.344385e+003,3.642390e+002
3.345350e+003,3.647786e+002
3.346314e+003,3.612694e+002
3.347278e+003,3.601374e+002
3.348242e+003,3.607039e+002
3.349207e+003,3.613347e+002
3.350171e+003,3.619050e+002
3.351135e+003,3.611926e+002
3.352099e+003,3.619070e+002
3.353063e+003,3.674432e+002
3.354028e+003,3.715871e+002
3.354992e+003,3.727770e+002
3.355956e+003,3.721686e+002
3.356920e+003,3.705468e+002
3.357885e+003,3.699448e+002
3.358849e+003,3.711156e+002
3.359813e+003,3.736824e+002
3.360777e+003,3.774539e+002
3.361741e+003,3.782286e+002
3.362706e+003,3.776325e+002
3.363670e+003,3.796826e+002
3.364634e+003,3.818604e+002
3.365598e+003,3.804495e+002
3.366563e+003,3.789175e+002
3.367527e+003,3.796682e+002
3.368491e+003,3.812668e+002
3.369455e+003,3.825709e+002
3.370420e+003,3.841365e+002
3.371384e+003,3.870888e+002
3.372348e+003,3.881884e+002
3.373312e+003,3.873928e+002
3.374277e+003,3.864780e+002
3.375241e+003,3.858967e+002
3.376205e+003,3.862968e+002
3.377169e+003,3.873994e+002
3.378134e+003,3.884175e+002
3.379098e+003,3.891721e+002
3.380062e+003,3.889585e+002
3.381026e+003,3.892668e+002
3.381990e+003,3.935100e+002
3.382955e+003,3.969088e+002
3.383919e+003,3.964983e+002
3.384883e+003,3.964530e+002
3.385847e+003,3.975432e+002
3.386812e+003,3.957542e+002
3.387776e+003,3.910476e+002
3.388740e+003,3.909297e+002
3.389704e+003,3.967883e+002
3.390668e+003,3.995885e+002
3.391633e+003,3.996762e+002
3.392597e+003,3.982925e+002
3.393561e+003,3.967195e+002
3.394525e+003,3.967264e+002
3.395490e+003,3.978960e+002
3.396454e+003,3.999539e+002
3.397418e+003,4.017263e+002
3.398382e+003,4.025683e+002
3.399347e+003,4.035080e+002
3.400311e+003,4.054022e+002
3.401275e+003,4.056269e+002
3.402239e+003,4.029402e+002
3.403204e+003,4.044764e+002
3.404168e+003,4.085679e+002
3.405132e+003,4.056885e+002
3.406096e+003,3.998075e+002
3.407061e+003,4.005278e+002
3.408025e+003,4.040133e+002
3.408989e+003,4.051314e+002
3.409953e+003,4.055219e+002
3.410917e+003,4.072422e+002
3.411882e+003,4.088940e+002
3.412846e+003,4.093685e+002
3.413810e+003,4.096724e+002
3.414774e+003,4.099509e+002
3.415739e+003,4.105500e+002
3.416703e+003,4.113408e+002
3.417667e+003,4.112675e+002
3.418631e+003,4.107755e+002
3.419595e+003,4.119488e+002
3.420560e+003,4.143050e+002
3.421524e+003,4.170720e+002
3.422488e+003,4.192479e+002
3.423452e+003,4.183686e+002
3.424417e+003,4.175039e+002
3.425381e+003,4.187778e+002
3.426345e+003,4.194816e+002
3.427309e+003,4.189869e+002
3.428274e+003,4.198557e+002
3.429238e+003,4.226876e+002
3.430202e+003,4.248748e+002
3.431166e+003,4.257659e+002
3.432131e+003,4.241075e+002
3.433095e+003,4.207416e+002
3.434059e+003,4.192201e+002
3.435023e+003,4.186490e+002
3.435988e+003,4.169324e+002
3.436952e+003,4.171996e+002
3.437916e+003,4.216132e+002
3.438880e+003,4.251602e+002
3.439844e+003,4.249102e+002
3.440809e+003,4.269172e+002
3.441773e+003,4.364869e+002
3.442737e+003,4.382615e+002
3.443701e+003,4.314644e+002
3.444666e+003,4.320476e+002
3.445630e+003,4.372714e+002
3.446594e+003,4.385603e+002
3.447558e+003,4.375543e+002
3.448522e+003,4.376799e+002
3.449487e+003,4.386624e+002
3.450451e+003,4.403607e+002
3.451415e+003,4.408999e+002
3.452379e+003,4.366789e+002
3.453344e+003,4.348486e+002
3.454308e+003,4.375379e+002
3.455272e+003,4.415637e+002
3.456236e+003,4.460220e+002
3.457201e+003,4.472822e+002
3.458165e+003,4.464026e+002
3.459129e+003,4.475596e+002
3.460093e+003,4.503116e+002
3.461058e+003,4.539727e+002
3.462022e+003,4.559913e+002
3.462986e+003,4.485477e+002
3.463950e+003,4.431296e+002
3.464915e+003,4.509750e+002
3.465879e+003,4.554659e+002
3.466843e+003,4.541974e+002
3.467807e+003,4.531183e+002
3.468771e+003,4.536151e+002
3.469736e+003,4.546840e+002
3.470700e+003,4.559620e+002
3.471664e+003,4.564774e+002
3.472628e+003,4.573210e+002
3.473593e+003,4.634422e+002
3.474557e+003,4.698710e+002
3.475521e+003,4.704167e+002
3.476485e+003,4.703026e+002
3.477449e+003,4.715735e+002
3.478414e+003,4.727361e+002
3.479378e+003,4.733271e+002
3.480342e+003,4.743011e+002
3.481306e+003,4.759619e+002
3.482271e+003,4.771895e+002
3.483235e+003,4.779534e+002
3.484199e+003,4.781342e+002
3.485163e+003,4.780249e+002
3.486128e+003,4.771247e+002
3.487092e+003,4.779974e+002
3.488056e+003,4.827819e+002
3.489020e+003,4.857016e+002
3.489985e+003,4.839093e+002
3.490949e+003,4.841635e+002
3.491913e+003,4.907473e+002
3.492877e+003,4.925986e+002
3.493842e+003,4.888251e+002
3.494806e+003,4.894204e+002
3.495770e+003,4.927830e+002
3.496734e+003,4.948266e+002
3.497698e+003,4.964888e+002
3.498663e+003,4.997979e+002
3.499627e+003,5.015695e+002
3.500591e+003,0.000000e+000
